0.000000,0.013314,0.005316,0.003421,0.002906,-0.000248
1.000000,0.014239,0.006277,0.003958,0.002888,0.005681
2.000000,0.014341,0.006459,0.004628,0.002816,0.000246
3.000000,0.009055,0.006257,0.005324,0.002885,0.006871
4.000000,0.008105,0.010127,0.006668,0.003862,0.027974
5.000000,0.007344,0.010329,0.006506,0.003664,-0.004051
6.000000,0.006017,0.010128,0.006241,0.003650,-0.000956
7.000000,0.006015,0.010178,0.006716,0.003199,0.000239
8.000000,0.003875,0.006465,0.005765,0.003371,-0.003831
9.000000,-0.002681,0.002712,0.005471,0.003513,-0.004809
10.000000,-0.000909,0.003217,0.004267,0.003353,0.004809
11.000000,0.000000,0.003008,0.004643,0.003642,0.003592
12.000000,-0.000239,0.002888,0.004673,0.004048,-0.000956
13.000000,-0.002171,0.000852,0.003555,0.003833,-0.013488
14.000000,0.000481,-0.001100,0.004514,0.004079,0.008451
15.000000,0.001291,0.000191,0.005260,0.004401,0.008857
16.000000,0.001334,0.000667,0.005397,0.004383,0.003806
17.000000,0.003698,0.001729,0.005954,0.005054,0.010862
18.000000,0.008916,0.003373,0.004919,0.004967,0.012602
19.000000,0.007411,0.003946,0.003329,0.004962,0.000927
20.000000,0.012069,0.006680,0.004949,0.005071,0.032147
21.000000,0.011935,0.006634,0.004821,0.005307,0.003136
22.000000,0.012561,0.008129,0.005509,0.005825,0.013992
23.000000,0.012974,0.010945,0.005899,0.006018,0.014669
24.000000,0.014261,0.010836,0.004868,0.006621,0.007363
25.000000,0.009337,0.010703,0.005447,0.007074,0.007523
26.000000,0.010118,0.011026,0.005847,0.007274,0.007042
27.000000,0.009350,0.010956,0.006342,0.007621,0.010155
28.000000,0.007675,0.010325,0.006849,0.006721,0.006295
29.000000,0.004902,0.009582,0.006764,0.005413,-0.006505
30.000000,0.002426,0.005881,0.006281,0.005260,-0.004854
31.000000,0.000085,0.005101,0.005868,0.004915,-0.004665
32.000000,-0.006503,0.001423,0.004776,0.004147,-0.022787
33.000000,-0.008896,-0.000610,0.005167,0.003729,-0.005669
34.000000,-0.003483,0.000709,0.005773,0.003482,0.020561
35.000000,-0.007237,-0.002406,0.004149,0.002829,-0.023627
36.000000,-0.008067,-0.003991,0.003518,0.002567,-0.008813
37.000000,-0.000653,-0.003578,0.003689,0.003036,0.014281
38.000000,0.001568,-0.003664,0.003330,0.003344,0.005439
39.000000,0.004113,0.000315,0.004948,0.004614,0.033287
40.000000,0.008208,0.000485,0.003183,0.004349,-0.003153
41.000000,0.011355,0.001644,0.003373,0.004460,0.006923
42.000000,0.006355,0.002851,0.002137,0.004135,-0.010720
43.000000,0.008121,0.004845,0.002117,0.005060,0.014268
44.000000,0.001297,0.002705,0.001707,0.004750,-0.000834
45.000000,0.002386,0.005297,0.001446,0.004531,0.002291
46.000000,0.000793,0.006074,0.001042,0.004370,-0.001041
47.000000,0.004348,0.005352,0.000887,0.004243,0.007055
48.000000,0.002361,0.005241,0.000789,0.003967,0.004333
49.000000,0.003555,0.002426,0.001371,0.004108,0.005134
50.000000,0.007873,0.005129,0.002807,0.003832,0.023883
51.000000,0.007079,0.003936,0.002790,0.003560,-0.005013
52.000000,0.006230,0.005289,0.004070,0.003188,0.002810
53.000000,0.006203,0.004282,0.004563,0.002839,0.004200
54.000000,0.007518,0.005536,0.004121,0.002984,0.011708
55.000000,0.005328,0.006601,0.005949,0.003164,0.012936
56.000000,0.006409,0.006744,0.006409,0.002942,0.000389
57.000000,0.006236,0.006233,0.005792,0.002669,0.001945
58.000000,0.006365,0.006284,0.005762,0.002620,0.004845
59.000000,0.002275,0.004897,0.003661,0.002546,-0.008739
60.000000,-0.000624,0.002352,0.003741,0.002656,-0.001562
61.000000,-0.005007,0.000701,0.002318,0.002094,-0.021523
62.000000,-0.003647,0.001294,0.003292,0.003145,0.008744
63.000000,-0.007767,-0.000701,0.001790,0.002809,-0.015755
64.000000,-0.005617,-0.001671,0.001933,0.002190,0.002008
65.000000,-0.005426,-0.003025,0.001788,0.002958,-0.000602
66.000000,0.011254,0.003124,0.004934,0.005314,0.061875
67.000000,0.013392,0.004873,0.005553,0.005486,0.019433
68.000000,0.012354,0.002294,0.004289,0.004606,-0.020943
69.000000,0.002075,-0.001771,0.001563,0.001850,-0.049386
70.000000,0.005465,0.000020,0.001186,0.002500,0.016344
71.000000,-0.009347,0.000954,0.000827,0.001863,-0.012183
72.000000,-0.013076,0.000158,0.000726,0.002247,0.000791
73.000000,-0.005323,0.003515,0.001407,0.002365,0.017817
74.000000,0.006946,0.004511,0.001420,0.002792,0.011960
75.000000,0.005813,0.005639,0.001307,0.003072,0.010681
76.000000,0.009912,0.000283,0.001703,0.003383,0.008313
77.000000,0.006874,-0.003101,0.000886,0.002668,-0.014402
78.000000,0.000891,-0.002216,0.000039,0.002120,-0.012098
79.000000,-0.000923,0.003012,0.000620,0.002046,0.002894
80.000000,-0.003290,0.001262,0.000641,0.001211,-0.001157
81.000000,0.000413,0.005163,0.003058,0.002273,0.026831
82.000000,0.006498,0.006686,0.003422,0.002713,0.016018
83.000000,0.012325,0.006608,0.005062,0.003141,0.017038
84.000000,0.010653,0.004865,0.004688,0.002568,-0.005464
85.000000,0.010629,0.003669,0.004654,0.002094,-0.001279
86.000000,0.005847,0.003130,0.001706,0.002179,0.002922
87.000000,0.006472,0.006485,0.001692,0.002752,0.019145
88.000000,0.002024,0.007175,0.002479,0.002417,-0.005201
89.000000,0.000328,0.005491,0.004251,0.002244,-0.013943
90.000000,0.001748,0.006188,0.003725,0.002490,0.005818
91.000000,0.004899,0.005373,0.005268,0.003830,0.018679
92.000000,-0.000896,0.002788,0.004737,0.003211,-0.009835
93.000000,0.001826,0.001925,0.004266,0.004016,0.008410
94.000000,0.008462,0.004395,0.004630,0.004590,0.019236
95.000000,0.007053,0.004401,0.004035,0.004570,-0.001224
96.000000,-0.001931,0.001484,0.002307,0.001632,-0.026243
97.000000,-0.001588,-0.001242,0.002621,0.000714,-0.008118
98.000000,-0.005858,-0.002016,0.002579,0.000981,-0.012943
99.000000,-0.010441,-0.000990,0.002251,0.002504,-0.003676
100.000000,-0.013352,-0.003149,0.001520,0.001434,-0.015778
101.000000,-0.009003,-0.005467,-0.000047,0.001690,-0.004500
102.000000,-0.010753,-0.006170,-0.001691,0.001101,-0.016868
103.000000,-0.010897,-0.008378,-0.003226,0.000052,-0.013663
104.000000,-0.012226,-0.011334,-0.003469,-0.000691,-0.010322
105.000000,-0.008406,-0.010879,-0.003239,-0.000936,0.003323
106.000000,-0.005140,-0.007071,-0.002794,-0.000819,0.011832
107.000000,-0.000728,-0.005740,-0.003491,-0.000166,0.005193
108.000000,0.003800,-0.003548,-0.002782,0.000537,0.008976
109.000000,0.004529,-0.003848,-0.002419,0.000218,-0.006676
110.000000,0.002636,-0.002885,-0.003017,0.000051,-0.006143
111.000000,0.005515,0.000188,-0.002640,0.000031,0.026227
112.000000,0.006529,0.002901,-0.001635,-0.000161,0.010264
113.000000,0.008778,0.006289,-0.001044,-0.000055,0.020218
114.000000,0.012788,0.008659,-0.001337,0.000573,0.013374
115.000000,0.010247,0.006442,-0.002219,-0.000012,-0.018848
116.000000,-0.003062,0.001227,-0.002922,-0.001454,-0.040319
117.000000,-0.005153,0.000688,-0.002526,-0.002098,-0.000190
118.000000,-0.014134,-0.002678,-0.003113,-0.002748,-0.024688
119.000000,-0.013747,-0.000480,-0.002164,-0.001773,0.015309
120.000000,-0.008942,0.000653,-0.001116,-0.001794,0.005179
121.000000,0.002950,-0.000056,0.000066,-0.001779,0.019138
122.000000,0.005153,0.000000,0.001450,-0.001090,0.010827
123.000000,0.014316,0.000091,0.003190,-0.000666,0.021127
124.000000,0.015250,0.000751,0.004705,-0.000641,0.019977
125.000000,0.016164,0.003611,0.005026,-0.000275,0.009753
126.000000,0.015280,0.009115,0.005171,0.001090,0.014714
127.000000,0.016903,0.011028,0.005858,0.001992,0.018946
128.000000,0.012610,0.013463,0.005392,0.002412,-0.000341
129.000000,0.003042,0.009146,0.004333,0.001606,-0.027864
130.000000,-0.002272,0.006946,0.003800,0.001571,-0.016813
131.000000,-0.004324,0.005478,0.002711,0.001870,0.004452
132.000000,-0.007333,0.004785,0.002393,0.002562,0.003901
133.000000,-0.008223,0.002194,0.001142,0.002858,-0.004790
134.000000,-0.004508,-0.000733,0.000009,0.002892,-0.009291
135.000000,-0.001721,-0.001996,0.000808,0.002686,-0.002876
136.000000,-0.000391,-0.002358,0.003378,0.002661,0.011099
137.000000,-0.001528,-0.004430,0.003299,0.002429,-0.001782
138.000000,0.000604,-0.003809,0.004827,0.002325,0.005868
139.000000,0.000466,-0.002021,0.003562,0.002215,-0.009979
140.000000,0.001614,-0.000054,0.003446,0.002515,0.002861
141.000000,-0.000107,-0.000249,0.002614,0.001724,0.002497
142.000000,-0.000178,-0.000853,0.001966,0.001311,-0.002140
143.000000,0.000673,0.000638,0.001416,0.000974,0.010124
144.000000,0.002138,0.001302,0.000284,0.000440,-0.002654
145.000000,0.004834,0.003224,0.000614,0.001613,0.016343
146.000000,0.003811,0.001852,-0.000253,0.002870,-0.002618
147.000000,0.003889,0.001855,-0.001288,0.002818,-0.001749
148.000000,-0.000779,-0.000053,-0.001931,0.003200,-0.013217
149.000000,0.000495,0.001317,-0.000352,0.002814,0.003718
150.000000,-0.004977,-0.000071,-0.000063,0.002274,-0.011018
151.000000,-0.003669,0.000071,-0.000089,0.001767,0.003924
152.000000,-0.005682,-0.000897,-0.000875,0.001012,-0.011818
153.000000,-0.005431,-0.003105,-0.001233,-0.000091,-0.011959
154.000000,-0.007822,-0.003663,-0.001181,-0.001031,-0.008237
155.000000,-0.009515,-0.007246,-0.002011,-0.002006,-0.019487
156.000000,-0.010900,-0.007285,-0.002716,-0.002597,-0.003003
157.000000,-0.011072,-0.008377,-0.003261,-0.003651,-0.012674
158.000000,-0.005957,-0.005694,-0.002874,-0.003186,0.013613
159.000000,-0.004686,-0.006254,-0.002469,-0.002319,-0.001880
160.000000,0.002533,-0.003491,-0.001781,-0.001205,0.016606
161.000000,0.003281,-0.003810,-0.001869,-0.001329,0.000740
162.000000,0.008935,-0.001068,-0.000982,-0.000939,0.015595
163.000000,0.003795,-0.001081,-0.002093,-0.001183,-0.012088
164.000000,0.002617,-0.001035,-0.002349,-0.001132,-0.007769
165.000000,-0.001262,0.000635,-0.003305,-0.001129,-0.002789
166.000000,-0.004261,-0.000490,-0.003887,-0.001974,-0.014254
167.000000,-0.006814,0.001060,-0.003658,-0.001820,0.002829
168.000000,-0.004208,-0.000207,-0.002950,-0.001985,0.000941
169.000000,-0.002994,-0.000188,-0.003221,-0.001709,-0.001695
170.000000,-0.003760,-0.002511,-0.003001,-0.002025,-0.006619
171.000000,0.003334,-0.000463,-0.002136,-0.001401,0.021215
172.000000,0.004286,-0.001264,-0.001166,-0.001076,0.007588
173.000000,0.002840,-0.000684,-0.000883,-0.001623,-0.006288
174.000000,0.002659,-0.000167,-0.000601,-0.001622,-0.002601
175.000000,0.007194,0.001717,0.001176,-0.001631,0.016053
176.000000,0.002180,0.002757,0.001134,-0.001672,-0.003851
177.000000,0.001213,0.002750,0.001905,-0.001522,0.002753
178.000000,0.001847,0.002343,0.001068,-0.001186,-0.003120
179.000000,0.009836,0.006247,0.003030,-0.000065,0.037345
180.000000,0.008213,0.007703,0.002596,0.000567,0.007937
181.000000,0.006152,0.004166,0.001851,-0.000036,-0.014155
182.000000,0.009763,0.005488,0.002112,0.001052,0.020808
183.000000,0.010910,0.006378,0.002847,0.001538,0.002614
184.000000,0.003893,0.006865,0.003349,0.001888,0.002260
185.000000,0.000491,0.004352,0.003035,0.002235,-0.009072
186.000000,0.003182,0.004667,0.003712,0.002311,-0.000701
187.000000,0.002635,0.006199,0.004474,0.003336,0.018075
188.000000,0.001491,0.006201,0.004272,0.002779,-0.003105
189.000000,-0.002587,0.000653,0.003450,0.002237,-0.018132
190.000000,0.000665,0.000578,0.004141,0.001923,0.007187
191.000000,-0.002009,0.000586,0.002376,0.001430,-0.014072
192.000000,-0.007976,-0.002671,0.001409,0.000518,-0.011761
193.000000,-0.008398,-0.003453,0.001463,0.000747,-0.005212
194.000000,0.001193,-0.000697,0.003084,0.002000,0.029821
195.000000,0.002223,0.001444,0.002898,0.002504,0.012340
196.000000,0.004934,0.001462,0.003065,0.002962,-0.000518
197.000000,0.006247,-0.000865,0.002667,0.002695,-0.005198
198.000000,0.010221,0.000912,0.003556,0.003152,0.014659
199.000000,0.007348,0.004271,0.002462,0.003724,0.015459
200.000000,0.004813,0.003518,0.002048,0.003933,-0.000337
201.000000,0.008427,0.006681,0.003633,0.003811,0.017552
202.000000,0.013729,0.009988,0.003659,0.004268,0.021312
203.000000,0.008677,0.009449,0.002998,0.004125,-0.010599
204.000000,0.006990,0.007169,0.003236,0.004446,0.007024
205.000000,0.007481,0.006147,0.003795,0.003981,0.002114
206.000000,0.002372,0.005399,0.003431,0.003843,-0.007992
207.000000,-0.000682,0.006523,0.002829,0.003953,0.006040
208.000000,0.000785,0.004731,0.002821,0.003948,-0.003261
209.000000,-0.003415,0.001788,0.003029,0.002237,-0.013977
210.000000,-0.005835,0.000823,0.002171,0.001640,-0.009985
211.000000,-0.002339,0.000017,0.003349,0.002428,0.009488
212.000000,-0.003845,-0.002264,0.003862,0.001684,-0.001492
213.000000,-0.002994,-0.001104,0.004172,0.001630,0.000995
214.000000,-0.004589,-0.004002,0.001584,0.000823,-0.021953
215.000000,-0.003714,-0.004774,0.000686,0.000939,-0.005607
216.000000,-0.005918,-0.004129,0.000635,0.000911,-0.001535
217.000000,0.001685,-0.001080,0.002722,0.001526,0.036526
218.000000,0.001453,-0.000770,0.001980,0.001624,-0.000165
219.000000,0.007776,0.001593,0.001691,0.002551,0.009662
220.000000,0.008179,0.002233,0.001528,0.002191,-0.003592
221.000000,0.007503,0.000792,0.000404,0.002496,-0.004919
222.000000,-0.001586,0.000050,-0.001107,0.002591,-0.008915
223.000000,-0.002484,-0.000515,-0.000810,0.002610,-0.004654
224.000000,-0.004616,0.001580,-0.001211,0.001582,-0.001000
225.000000,-0.001280,0.003450,-0.000662,0.001607,0.013089
226.000000,0.001082,0.004292,0.000082,0.001854,0.006890
227.000000,0.005108,0.001761,0.000341,0.002402,0.011217
228.000000,0.004286,0.000901,0.000065,0.001621,-0.008768
229.000000,0.004681,0.000033,0.000813,0.001138,0.000978
230.000000,0.001476,0.000098,0.001165,0.001051,-0.002937
231.000000,-0.001674,-0.000296,0.000248,0.000171,-0.008863
232.000000,-0.007746,-0.001319,-0.000635,-0.001178,-0.019140
233.000000,-0.006598,-0.001156,-0.000836,-0.000925,-0.003029
234.000000,-0.002525,0.001078,0.001329,-0.000448,0.021345
235.000000,-0.001904,-0.000214,0.001618,-0.000513,0.000165
236.000000,0.001216,-0.000229,0.002032,-0.000022,0.006741
237.000000,-0.001078,-0.004412,-0.001325,-0.001244,-0.030613
238.000000,-0.002544,-0.004571,-0.001835,-0.001480,-0.010359
239.000000,-0.007360,-0.004943,-0.002455,-0.001106,-0.002735
240.000000,-0.007359,-0.004632,-0.002267,-0.000767,0.000171
241.000000,-0.008229,-0.003506,-0.001901,-0.001003,0.002393
242.000000,0.002051,0.000486,-0.000416,-0.000261,0.020783
243.000000,0.008129,0.002792,0.000818,0.000374,0.020032
244.000000,0.012539,0.002590,0.001834,0.001749,0.019317
245.000000,0.013851,0.003246,0.001516,0.002161,0.006730
246.000000,0.013468,0.002620,0.001195,0.002228,0.000479
247.000000,0.010172,0.006111,0.000850,0.001153,0.004300
248.000000,0.008786,0.008458,0.001943,0.001596,0.013105
249.000000,0.007788,0.010164,0.002611,0.001751,0.014328
250.000000,0.008167,0.011009,0.003189,0.002158,0.008622
251.000000,0.003481,0.008475,0.002484,0.001557,-0.022950
252.000000,0.002213,0.006192,0.003339,0.001787,-0.002041
253.000000,-0.001512,0.003637,0.003215,0.001758,-0.005517
254.000000,-0.005169,0.001310,0.001950,0.001659,-0.003959
255.000000,-0.005786,0.001191,0.002218,0.001407,0.005538
256.000000,-0.002018,0.000732,0.001676,0.001041,-0.004111
257.000000,0.000534,0.001373,0.003742,0.001024,0.010717
258.000000,-0.002321,-0.001916,0.003271,0.000657,-0.019790
259.000000,0.000602,-0.002283,0.003940,0.000979,0.010656
260.000000,-0.001935,-0.003860,0.003574,0.000839,-0.007145
261.000000,-0.000667,-0.001342,0.003566,0.001209,0.002228
262.000000,-0.002492,-0.000979,0.002606,0.001900,0.001589
263.000000,0.002036,-0.000142,0.001748,0.002096,0.002853
264.000000,-0.000190,0.000206,0.000758,0.001368,-0.000475
265.000000,-0.001054,-0.001494,-0.000152,0.000981,-0.011467
266.000000,-0.004958,-0.002812,-0.001040,0.000180,-0.017288
267.000000,-0.006977,-0.004735,-0.001681,0.000916,-0.008511
268.000000,-0.004158,-0.001061,-0.001489,0.001827,0.016950
269.000000,-0.005458,-0.002824,-0.002554,0.001686,-0.006973
270.000000,-0.001189,-0.001122,-0.002491,0.002009,0.009878
271.000000,0.001300,-0.001829,-0.001586,0.001768,-0.004846
272.000000,-0.001584,-0.004281,-0.002630,0.000311,-0.022929
273.000000,-0.004114,-0.004136,-0.002139,-0.000214,0.004298
274.000000,-0.003646,-0.004552,-0.002173,-0.001012,-0.004630
275.000000,-0.002693,-0.001941,-0.001718,-0.000748,0.014642
276.000000,-0.000032,0.000634,-0.001089,-0.000482,0.008457
277.000000,0.003384,0.000900,-0.001917,-0.000821,-0.005847
278.000000,0.002720,-0.000697,-0.000879,-0.001225,0.000977
279.000000,0.003515,-0.000065,-0.001444,-0.001724,-0.000651
280.000000,0.002080,-0.000307,-0.000714,-0.001763,0.007463
281.000000,0.000162,0.000065,-0.000882,-0.001036,-0.001132
282.000000,0.002106,0.002745,-0.000768,-0.000838,0.003876
283.000000,-0.000261,0.001230,-0.001453,-0.001016,-0.010858
284.000000,0.000325,0.001920,-0.001316,-0.000808,0.002279
285.000000,0.000967,0.001524,-0.000209,-0.000637,0.010673
286.000000,0.005742,0.002952,0.001793,0.000258,0.022741
287.000000,0.005344,0.003725,0.002313,-0.000037,0.001885
288.000000,0.008205,0.003972,0.001637,0.000738,0.003447
289.000000,0.009276,0.004801,0.002368,0.000637,0.007634
290.000000,0.015917,0.008442,0.004068,0.002338,0.043878
291.000000,0.009458,0.007600,0.003832,0.001945,-0.009552
292.000000,0.012560,0.008952,0.005849,0.002472,0.017394
293.000000,0.010659,0.009432,0.005331,0.002175,-0.006061
294.000000,0.008568,0.008922,0.005421,0.002097,-0.002821
295.000000,-0.000119,0.007899,0.004711,0.002494,0.000446
296.000000,0.000120,0.004789,0.003871,0.002792,-0.008358
297.000000,-0.005499,0.003531,0.003628,0.002719,-0.010699
298.000000,-0.003953,0.003353,0.003662,0.002209,0.001665
299.000000,-0.006376,0.001096,0.002948,0.001944,-0.014932
300.000000,-0.005485,-0.002802,0.002820,0.001778,0.004900
301.000000,-0.003569,-0.001724,0.002938,0.001980,0.001221
302.000000,0.000575,-0.002462,0.003245,0.003078,0.010020
303.000000,-0.003109,-0.003531,0.002950,0.002377,-0.016756
304.000000,-0.001047,-0.003711,0.002605,0.002377,-0.004619
305.000000,-0.003141,-0.004313,0.001793,0.001703,-0.005571
306.000000,-0.004756,-0.004162,0.000313,0.001193,-0.006851
307.000000,-0.006541,-0.002983,0.000274,0.001424,0.001093
308.000000,-0.004285,-0.003697,-0.000172,0.001209,-0.005478
309.000000,-0.001736,-0.001391,-0.000148,0.001502,0.008128
310.000000,0.000651,-0.001245,-0.002023,0.001465,0.006362
311.000000,0.005182,0.000213,-0.000756,0.002030,0.015806
312.000000,0.007896,0.000677,-0.000892,0.002389,0.014661
313.000000,0.011318,0.003517,-0.000007,0.003139,0.011635
314.000000,0.010344,0.004304,0.000297,0.003172,0.003257
315.000000,0.006333,0.003492,-0.000410,0.002359,-0.013693
316.000000,-0.002143,0.001520,-0.001321,0.000716,-0.026575
317.000000,-0.003328,0.002284,-0.000350,0.000944,0.008734
318.000000,-0.004924,0.003197,-0.000250,0.000951,0.003655
319.000000,-0.007685,0.001330,-0.000031,0.000345,-0.010543
320.000000,-0.006984,-0.000325,-0.000785,-0.001457,-0.010190
321.000000,0.000676,-0.000733,-0.000260,-0.000748,0.011725
322.000000,0.000122,-0.001603,-0.000463,-0.001129,0.005964
323.000000,0.001031,-0.001947,0.000785,-0.000654,0.008199
324.000000,0.003049,-0.002318,0.000993,-0.000575,-0.000454
325.000000,0.007553,0.000284,0.001888,-0.000179,0.012329
326.000000,0.004189,0.002432,0.001976,-0.000070,-0.005094
327.000000,0.002274,0.001198,0.001741,0.000166,-0.003611
328.000000,-0.002587,-0.000778,0.001209,-0.000426,-0.016107
329.000000,-0.004653,-0.000802,0.000264,-0.000288,-0.010781
330.000000,-0.007305,0.000124,-0.000101,-0.000482,-0.000930
331.000000,-0.006069,-0.000940,-0.000837,-0.000487,0.001084
332.000000,-0.007557,-0.002642,-0.002122,-0.001189,-0.011053
333.000000,-0.003648,-0.003118,-0.002532,-0.000516,0.003438
334.000000,0.000000,-0.002326,-0.002322,-0.000113,0.007460
335.000000,-0.000186,-0.003745,-0.001730,0.000010,-0.001860
336.000000,-0.003089,-0.004579,-0.001073,-0.000209,-0.013431
337.000000,-0.000157,-0.003857,-0.001329,-0.000125,0.003610
338.000000,-0.001535,-0.002592,-0.001685,-0.000058,-0.003453
339.000000,0.000000,0.000000,-0.000401,0.000176,0.015134
340.000000,0.001699,0.000757,0.000440,0.000185,0.006636
341.000000,0.005704,0.001307,0.000184,-0.000122,0.006593
342.000000,0.005043,0.002443,-0.000099,-0.000601,0.000306
343.000000,0.006039,0.002252,-0.000433,-0.000937,0.001526
344.000000,0.002676,0.001338,-0.000494,-0.001102,-0.001679
345.000000,0.003749,0.002724,-0.000511,-0.000246,0.011998
346.000000,0.000000,0.002852,-0.000864,0.000235,-0.012151
347.000000,0.001522,0.003283,-0.000287,0.000208,0.007915
348.000000,0.004524,0.005282,0.001345,0.000637,0.016539
349.000000,0.006316,0.004496,0.002248,0.001231,0.007280
350.000000,0.005392,0.004570,0.002663,0.001817,0.007375
351.000000,0.009111,0.004555,0.002931,0.001641,0.006445
352.000000,0.006767,0.004145,0.003294,0.001315,-0.003803
353.000000,0.002607,0.003566,0.002909,0.000900,-0.004259
354.000000,-0.000445,0.002936,0.002137,0.000649,-0.007980
355.000000,-0.002246,0.001573,0.002148,0.000184,-0.001633
356.000000,-0.003773,0.002669,0.002760,0.000314,-0.001190
357.000000,0.001052,0.003910,0.003596,0.001112,0.020325
358.000000,0.004627,0.003617,0.004449,0.002102,0.013612
359.000000,0.005156,0.002355,0.003426,0.002284,-0.005336
360.000000,0.004264,0.001009,0.002790,0.002112,-0.006091
361.000000,0.002602,-0.000586,0.001985,0.001759,-0.009501
362.000000,-0.001993,-0.000470,0.001837,0.002039,-0.002647
363.000000,-0.003570,0.000528,0.002047,0.002116,0.005726
364.000000,0.004348,0.004752,0.003844,0.003009,0.034253
365.000000,0.010541,0.007402,0.004488,0.003900,0.024872
366.000000,0.012137,0.007369,0.005019,0.004297,-0.001519
367.000000,0.017716,0.007862,0.005886,0.005018,0.025249
368.000000,0.023797,0.010114,0.006865,0.006338,0.036132
369.000000,0.017751,0.011049,0.006702,0.005967,0.004022
370.000000,0.015732,0.013137,0.007073,0.006239,0.014779
371.000000,0.016113,0.014125,0.006770,0.006032,0.000383
372.000000,0.010220,0.013968,0.006749,0.005881,-0.004217
373.000000,0.002788,0.013293,0.006911,0.005796,-0.001025
374.000000,0.004126,0.010938,0.007845,0.006209,0.010710
375.000000,0.006501,0.011117,0.009260,0.006697,0.026655
376.000000,0.002685,0.009399,0.008384,0.006479,-0.018697
377.000000,0.004382,0.007301,0.007581,0.006358,0.004269
378.000000,0.001227,0.002008,0.006061,0.005246,-0.016803
379.000000,-0.001783,0.001171,0.006110,0.004859,-0.004341
380.000000,-0.004395,0.001053,0.007095,0.005066,0.013599
381.000000,-0.002354,0.000166,0.007145,0.004568,-0.008493
382.000000,-0.002953,0.000715,0.007341,0.004737,0.001272
383.000000,0.000661,0.000944,0.007118,0.004922,0.001271
384.000000,-0.000410,-0.001097,0.004921,0.004865,-0.009698
385.000000,-0.001444,-0.002919,0.004099,0.005200,0.008427
386.000000,-0.000535,-0.001445,0.003977,0.005108,-0.003949
387.000000,0.001646,-0.000654,0.003324,0.004836,0.012180
388.000000,0.001745,0.001203,0.001605,0.004441,0.001764
389.000000,0.006509,0.003050,0.002110,0.005090,0.014124
390.000000,0.007903,0.003229,0.002141,0.005806,0.015395
391.000000,0.008105,0.003785,0.001975,0.006025,-0.002938
392.000000,0.001833,0.001739,0.001227,0.005474,-0.019183
393.000000,0.000478,0.001111,0.001028,0.005116,-0.005011
394.000000,-0.002021,0.002244,0.000574,0.004029,0.001631
395.000000,-0.006509,0.000697,-0.001111,0.002965,-0.007046
396.000000,-0.011348,-0.001621,-0.001533,0.002111,-0.027132
397.000000,-0.007382,-0.002775,-0.001714,0.001291,0.000648
398.000000,-0.004598,-0.002060,-0.000429,0.000383,0.008906
399.000000,-0.006888,-0.004454,-0.000702,-0.000078,-0.009814
400.000000,-0.005167,-0.005838,-0.001304,-0.000519,0.001556
401.000000,0.003090,-0.004129,-0.000172,-0.000060,0.014152
402.000000,0.007781,0.000200,0.000970,0.000885,0.024107
403.000000,0.010464,0.002933,0.002022,0.001663,0.022320
404.000000,0.010121,0.001617,0.001930,0.000921,-0.011530
405.000000,0.011994,0.003413,0.002055,0.000397,0.010920
406.000000,0.008944,0.006017,0.002198,0.000984,-0.001099
407.000000,0.005898,0.006840,0.002033,0.001137,0.008878
408.000000,0.000512,0.005488,0.001714,0.001544,-0.004612
409.000000,0.004802,0.007462,0.001504,0.002019,0.009925
410.000000,0.002787,0.007390,0.000776,0.001594,0.000843
411.000000,0.003247,0.006096,0.000983,0.001917,0.001203
412.000000,0.001832,0.003865,0.002032,0.001935,0.001801
413.000000,0.003569,0.002040,0.002486,0.002028,0.004071
414.000000,0.006796,0.005799,0.003708,0.003220,0.026064
415.000000,0.007302,0.005044,0.004229,0.003052,0.003370
416.000000,0.008149,0.005698,0.005857,0.003364,0.005438
417.000000,0.010243,0.006038,0.006439,0.003368,0.012271
418.000000,0.010588,0.007078,0.006283,0.003502,0.005796
419.000000,0.006302,0.006549,0.007006,0.003186,0.004636
420.000000,0.002994,0.005148,0.006269,0.002233,-0.013172
421.000000,0.001174,0.004661,0.005378,0.002209,-0.003664
422.000000,-0.000845,0.004699,0.004282,0.002921,0.002177
423.000000,-0.003937,0.003326,0.002683,0.002766,-0.009662
424.000000,-0.004795,0.000754,0.003277,0.002723,0.000347
425.000000,-0.001422,0.000786,0.002915,0.003081,0.003690
426.000000,-0.004454,-0.001640,0.002029,0.003358,-0.018825
427.000000,-0.005266,-0.003055,0.001491,0.003274,-0.001879
428.000000,0.000807,-0.001565,0.002757,0.003667,0.020703
429.000000,0.000369,-0.002213,0.002168,0.003933,-0.001844
430.000000,0.000437,-0.000493,0.002328,0.004015,0.004028
431.000000,0.003857,-0.000299,0.002181,0.003486,-0.001724
432.000000,-0.001368,-0.003317,0.000691,0.001749,-0.028003
433.000000,-0.007459,-0.003326,0.000000,0.000680,-0.009750
434.000000,-0.004172,-0.001901,-0.000574,0.001551,0.014590
435.000000,-0.009575,-0.004569,-0.001892,0.000420,-0.022990
436.000000,-0.007407,-0.001775,-0.001708,0.000761,0.009116
437.000000,-0.000593,-0.000980,-0.002018,0.000667,0.006071
438.000000,-0.001006,-0.004232,-0.002899,0.000427,-0.011819
439.000000,-0.004743,-0.004457,-0.003335,-0.000040,-0.004091
440.000000,-0.000434,-0.005005,-0.002749,-0.000117,-0.001448
441.000000,-0.001775,-0.004591,-0.002445,-0.000076,0.002412
442.000000,-0.004756,-0.002674,-0.002995,-0.000431,-0.008833
443.000000,-0.005948,-0.003477,-0.003401,-0.001159,-0.017780
444.000000,-0.007119,-0.005931,-0.003916,-0.002359,-0.009947
445.000000,-0.026344,-0.013389,-0.008979,-0.005724,-0.097574
446.000000,-0.030217,-0.015996,-0.008886,-0.006470,-0.016950
447.000000,-0.041925,-0.023340,-0.012160,-0.009125,-0.067373
448.000000,-0.036014,-0.020981,-0.012607,-0.008926,0.011771
449.000000,-0.026467,-0.016793,-0.010625,-0.007821,0.037790
450.000000,0.006745,-0.009799,-0.007402,-0.005099,0.068489
451.000000,0.012492,-0.008862,-0.006727,-0.004584,0.011784
452.000000,0.025651,-0.008137,-0.005406,-0.004709,-0.001581
453.000000,0.028322,-0.003846,-0.003662,-0.003550,0.025127
454.000000,0.015659,-0.005404,-0.005667,-0.004412,-0.025522
455.000000,0.004400,0.005573,-0.003908,-0.004129,0.012191
456.000000,0.002667,0.007580,-0.004208,-0.003397,0.003122
457.000000,-0.000237,0.012707,-0.005317,-0.003871,-0.016105
458.000000,-0.002953,0.012684,-0.004148,-0.004176,0.011549
459.000000,0.004512,0.010086,-0.003354,-0.003722,0.011804
460.000000,0.000130,0.002265,-0.003767,-0.004180,-0.009718
461.000000,-0.000624,0.001021,-0.003920,-0.004144,-0.000651
462.000000,0.002649,0.001206,-0.003466,-0.003202,0.000261
463.000000,-0.005933,-0.004443,-0.004145,-0.003922,-0.031358
464.000000,-0.006527,-0.001007,-0.003206,-0.004114,0.008832
465.000000,-0.003892,-0.001881,0.001846,-0.003232,0.003458
466.000000,0.003282,0.001329,0.004454,-0.002362,0.035220
467.000000,0.002254,0.002451,0.007579,-0.002727,-0.004882
468.000000,0.006922,0.000495,0.006589,-0.002601,-0.008018
469.000000,0.006913,0.000193,0.005139,-0.002171,0.008790
470.000000,0.000954,-0.001469,0.000398,-0.003001,-0.026341
471.000000,0.000768,0.002025,0.001523,-0.001939,0.034289
472.000000,0.004508,0.003381,0.002293,-0.001183,0.013821
473.000000,0.008515,0.007719,0.001638,-0.000190,0.012017
474.000000,0.007502,0.007208,0.003100,0.000266,0.003726
475.000000,0.012994,0.006974,0.002546,0.003555,0.001115
476.000000,0.005541,0.003154,0.002242,0.004021,-0.002976
477.000000,0.002577,0.003543,0.002997,0.006234,-0.000994
478.000000,-0.001449,0.003533,0.002014,0.005571,-0.008113
479.000000,-0.003451,0.002026,0.001109,0.004102,-0.006286
480.000000,-0.017510,-0.002258,-0.001864,-0.000487,-0.069182
481.000000,-0.026125,-0.010292,-0.004134,-0.002415,-0.046050
482.000000,-0.023227,-0.010325,-0.003472,-0.001913,0.013495
483.000000,-0.018914,-0.010181,-0.001231,-0.002302,0.013453
484.000000,-0.018126,-0.010788,-0.001790,-0.001529,-0.002345
485.000000,-0.007491,-0.012501,-0.002764,-0.002469,-0.016007
486.000000,-0.009893,-0.018009,-0.007427,-0.004509,-0.058058
487.000000,-0.005722,-0.014475,-0.005466,-0.002827,0.034348
488.000000,-0.019277,-0.019096,-0.007781,-0.005023,-0.054323
489.000000,-0.021588,-0.019857,-0.008916,-0.005879,-0.013901
490.000000,-0.022082,-0.014786,-0.008522,-0.006171,-0.018474
491.000000,-0.019116,-0.014504,-0.012398,-0.007590,-0.043227
492.000000,-0.025920,-0.015821,-0.013073,-0.007588,0.000327
493.000000,-0.002657,-0.010967,-0.010574,-0.004477,0.061990
494.000000,0.002659,-0.009465,-0.010127,-0.004348,0.012679
495.000000,0.010440,-0.005821,-0.009161,-0.003783,0.020433
496.000000,0.015878,-0.001619,-0.009814,-0.005491,-0.016041
497.000000,0.016325,-0.004797,-0.009636,-0.005243,0.002566
498.000000,0.002900,0.000121,-0.009487,-0.005147,-0.005138
499.000000,0.002923,0.002791,-0.008533,-0.005013,0.012797
500.000000,0.004645,0.007543,-0.003622,-0.003167,0.029043
501.000000,0.006512,0.011195,-0.001655,-0.004534,-0.006707
502.000000,0.006087,0.011206,-0.002307,-0.004980,0.000439
503.000000,0.009671,0.006286,-0.002341,-0.004954,0.012785
504.000000,-0.003288,-0.000182,-0.004824,-0.006812,-0.052000
505.000000,-0.013711,-0.004533,-0.005177,-0.007618,-0.023074
506.000000,-0.015602,-0.004545,-0.003082,-0.008058,-0.016158
507.000000,-0.012738,-0.003326,-0.004061,-0.007533,0.014757
508.000000,-0.016734,-0.003531,-0.001705,-0.007502,-0.007194
509.000000,-0.015717,-0.009503,-0.003356,-0.008856,-0.046916
510.000000,-0.018919,-0.016315,-0.004386,-0.007853,-0.039083
511.000000,-0.015550,-0.015576,-0.002191,-0.006295,0.000684
512.000000,-0.015684,-0.014211,-0.001503,-0.006275,0.014088
513.000000,-0.006023,-0.011378,-0.002546,-0.005353,0.041112
514.000000,0.002939,-0.006389,-0.003286,-0.005345,-0.002105
515.000000,0.013141,-0.002889,-0.003711,-0.004414,0.011924
516.000000,0.018003,0.001226,-0.001659,-0.001646,0.024993
517.000000,0.015341,-0.000172,-0.001749,-0.002765,0.000781
518.000000,0.023218,0.008598,0.002533,0.001729,0.080499
519.000000,0.022078,0.012509,0.001503,0.001932,-0.007808
520.000000,0.012812,0.012976,-0.001670,0.001401,-0.034407
521.000000,0.009548,0.013775,-0.000900,0.003131,0.008676
522.000000,0.009957,0.012649,-0.000781,0.003215,0.002826
523.000000,-0.000461,0.011378,0.000000,0.002095,0.028406
524.000000,0.004308,0.013193,0.003402,0.002207,0.016039
525.000000,0.008472,0.010642,0.003876,0.001073,-0.013588
526.000000,0.010390,0.009969,0.005597,0.002217,0.018265
527.000000,0.007806,0.008882,0.004355,0.001795,-0.010090
528.000000,0.000115,-0.000173,0.004212,0.001631,-0.010049
529.000000,-0.001111,0.001598,0.007053,0.001535,0.009906
530.000000,-0.000259,0.004106,0.008541,0.000256,-0.009329
531.000000,0.000621,0.005505,0.009640,0.001235,0.022668
532.000000,0.006907,0.007357,0.010003,0.001932,0.021338
533.000000,0.010210,0.005163,0.008271,0.001721,0.006465
534.000000,0.006604,0.002746,0.007970,0.003183,-0.008122
535.000000,0.005069,0.002405,0.006523,0.003386,-0.017006
536.000000,0.002382,0.001502,0.005735,0.004232,0.009236
537.000000,-0.000221,0.003343,0.006112,0.004018,0.008323
538.000000,-0.004660,0.002775,0.001301,0.003733,-0.015733
539.000000,0.000497,0.003551,0.002574,0.005886,0.017665
540.000000,-0.000141,0.002464,0.003285,0.006515,-0.020194
541.000000,0.014816,0.008599,0.007052,0.009293,0.084017
542.000000,0.014286,0.007033,0.007195,0.009013,0.005675
543.000000,0.023712,0.009526,0.007344,0.008689,0.031399
544.000000,0.020429,0.010463,0.006605,0.008801,0.001246
545.000000,0.025535,0.012697,0.007551,0.008581,0.005339
546.000000,0.009818,0.012317,0.006909,0.007929,0.005433
547.000000,0.003544,0.008915,0.006129,0.007047,-0.025697
548.000000,-0.003724,0.009994,0.006384,0.004199,-0.004940
549.000000,-0.008364,0.006032,0.004791,0.003727,-0.021954
550.000000,-0.007391,0.009072,0.005768,0.005214,0.010202
551.000000,-0.009044,0.000387,0.004493,0.004831,-0.002831
552.000000,-0.006472,-0.001464,0.002784,0.004308,-0.012838
553.000000,-0.003097,-0.003410,0.003058,0.003759,0.011936
554.000000,0.003423,-0.002470,0.003996,0.003580,0.010647
555.000000,-0.001651,-0.004521,0.004088,0.003527,-0.015171
556.000000,0.003272,-0.002886,0.004715,0.003644,0.021785
557.000000,0.005915,-0.000278,0.004318,0.003993,0.000380
558.000000,0.000258,-0.001420,0.004287,0.003783,-0.016352
559.000000,-0.003605,-0.000091,0.002971,0.003164,-0.008667
560.000000,0.000802,-0.000425,0.004324,0.003704,0.006862
561.000000,-0.000025,0.001623,0.001005,0.003536,0.017650
562.000000,0.004783,0.005349,0.001942,0.003639,0.024420
563.000000,0.009311,0.004784,0.000687,0.003633,0.006290
564.000000,0.012685,0.004540,0.001035,0.004178,0.008203
565.000000,0.012795,0.006798,0.001138,0.004991,0.007411
566.000000,0.009410,0.004692,0.000903,0.004708,0.000726
567.000000,0.007193,0.005988,0.002855,0.004875,0.013336
568.000000,0.005744,0.007528,0.003054,0.005367,-0.000955
569.000000,0.005152,0.008919,0.004414,0.004953,0.005242
570.000000,0.002119,0.007457,0.003516,0.005368,-0.007754
571.000000,0.001950,0.005680,0.003652,0.002563,-0.000120
572.000000,0.002750,0.004971,0.005160,0.002952,0.017336
573.000000,0.004885,0.005315,0.005050,0.002230,0.009723
574.000000,0.003697,0.004424,0.004482,0.002165,-0.000700
575.000000,0.003632,0.002875,0.004837,0.001717,-0.008082
576.000000,0.003043,0.002496,0.003594,0.001434,-0.003062
577.000000,-0.002273,0.000238,0.003113,0.001983,-0.009244
578.000000,-0.000607,0.002139,0.004833,0.002749,0.018053
579.000000,0.000954,0.002326,0.005622,0.003718,0.007108
580.000000,0.000564,0.002098,0.004777,0.003043,-0.010035
581.000000,-0.000685,0.001179,0.003429,0.002827,-0.009308
582.000000,0.001920,-0.000177,0.002397,0.003381,0.003781
583.000000,-0.000140,-0.000374,0.002471,0.003242,0.007753
584.000000,-0.004556,-0.001801,0.001312,0.002388,-0.014972
585.000000,-0.000070,0.000247,0.001561,0.003307,0.012395
586.000000,0.000473,-0.000106,0.001195,0.002361,-0.006591
587.000000,-0.002755,-0.000418,-0.000090,0.001936,-0.012358
588.000000,-0.005048,-0.002594,-0.000227,0.002358,-0.003713
589.000000,-0.000238,-0.002397,-0.000036,0.002949,0.009079
590.000000,-0.006559,-0.003315,-0.000608,0.002080,-0.019211
591.000000,-0.010473,-0.005000,-0.001911,0.000620,-0.026161
592.000000,-0.006934,-0.004844,-0.002510,-0.000016,0.005337
593.000000,-0.006092,-0.005570,-0.002972,-0.000210,0.000495
594.000000,-0.009897,-0.005067,-0.003434,-0.000815,-0.009947
595.000000,-0.002906,-0.004732,-0.002243,-0.000537,0.015744
596.000000,0.005232,-0.002620,-0.001363,-0.000077,0.014531
597.000000,0.001578,-0.002678,-0.001548,-0.000952,-0.012933
598.000000,0.002899,-0.001597,-0.002095,-0.000684,0.007097
599.000000,0.004839,-0.002529,-0.002463,-0.000867,-0.000244
600.000000,0.000884,-0.001011,-0.002163,-0.000743,-0.004033
601.000000,-0.002513,0.001360,-0.001820,-0.000820,-0.002452
602.000000,-0.001727,-0.000074,-0.002459,-0.001698,-0.009002
603.000000,-0.006317,-0.001709,-0.003640,-0.002551,-0.015857
604.000000,-0.008191,-0.001676,-0.003372,-0.002848,-0.009611
605.000000,-0.007156,-0.003136,-0.003934,-0.002541,0.001143
606.000000,-0.004947,-0.003730,-0.003175,-0.002152,0.008594
607.000000,-0.004713,-0.003220,-0.002949,-0.002105,-0.007832
608.000000,-0.004969,-0.005643,-0.003620,-0.003278,-0.017140
609.000000,-0.003047,-0.005619,-0.004074,-0.003515,0.000000
610.000000,-0.004466,-0.005811,-0.003411,-0.003379,-0.005952
611.000000,-0.006315,-0.005631,-0.002136,-0.003090,-0.000649
612.000000,-0.002553,-0.003633,-0.001853,-0.002850,0.010978
613.000000,0.000181,-0.002394,-0.002052,-0.003225,-0.003474
614.000000,-0.001113,-0.002080,-0.001878,-0.002941,-0.006466
615.000000,-0.002009,-0.003238,-0.003187,-0.003702,-0.010433
616.000000,-0.002194,-0.004254,-0.003992,-0.003535,-0.001574
617.000000,-0.000360,-0.001456,-0.002338,-0.002451,0.020148
618.000000,0.003248,0.001714,-0.001965,-0.001842,0.014563
619.000000,0.004591,0.001739,-0.001940,-0.002136,0.000254
620.000000,0.012772,0.005381,-0.000215,-0.000480,0.030468
621.000000,0.014435,0.006121,0.000245,0.000616,0.006741
622.000000,0.009671,0.004656,0.000511,0.000316,-0.003672
623.000000,0.003844,0.003546,0.000576,-0.000186,-0.014574
624.000000,0.006830,0.005711,0.001815,0.000652,0.015186
625.000000,-0.005006,0.003883,0.000323,-0.000830,-0.028714
626.000000,-0.005901,0.004267,0.000006,-0.001239,0.002267
627.000000,-0.009774,-0.000051,-0.000754,-0.001576,-0.023036
628.000000,-0.007297,-0.001727,-0.000006,-0.001885,-0.002191
629.000000,-0.016653,-0.004911,-0.001586,-0.002930,-0.031591
630.000000,-0.009503,-0.007255,-0.000937,-0.002561,0.007033
631.000000,-0.013748,-0.009825,-0.001852,-0.003112,-0.018957
632.000000,-0.006810,-0.008292,-0.001818,-0.002423,0.011657
633.000000,-0.000052,-0.003675,-0.000064,-0.000841,0.031599
634.000000,0.011565,-0.002544,0.001583,0.000362,0.026492
635.000000,0.012805,0.001651,0.002767,0.000765,0.013235
636.000000,0.012283,-0.000732,0.001767,-0.000240,-0.021566
637.000000,0.009368,0.001279,0.000614,-0.000076,-0.002919
638.000000,0.001748,0.000848,-0.000439,0.000278,-0.006504
639.000000,-0.007818,0.001873,-0.001519,-0.000433,-0.021337
640.000000,-0.012620,0.000093,-0.003581,-0.000594,-0.010775
641.000000,-0.015435,-0.001576,-0.005700,-0.001760,-0.035639
642.000000,-0.018415,-0.004523,-0.006408,-0.002720,-0.017819
643.000000,-0.022053,-0.010152,-0.006914,-0.003427,-0.024693
644.000000,-0.018788,-0.013303,-0.007923,-0.003379,-0.005013
645.000000,-0.015859,-0.014240,-0.006294,-0.002902,0.003869
646.000000,-0.001401,-0.008418,-0.004575,-0.001628,0.036649
647.000000,-0.000446,-0.009431,-0.004076,-0.002734,-0.013045
648.000000,0.003090,-0.009481,-0.004317,-0.003453,-0.007009
649.000000,-0.004296,-0.011542,-0.004834,-0.004860,-0.041942
650.000000,-0.010361,-0.013110,-0.006509,-0.006757,-0.026458
651.000000,-0.035315,-0.018358,-0.009967,-0.009920,-0.088121
652.000000,-0.036392,-0.018419,-0.011471,-0.010411,-0.018428
653.000000,-0.052051,-0.024481,-0.017316,-0.012769,-0.085307
654.000000,-0.027643,-0.015969,-0.014636,-0.010605,0.080099
655.000000,-0.026917,-0.018639,-0.016439,-0.010409,-0.022829
656.000000,-0.007919,-0.021617,-0.015018,-0.010256,0.006869
657.000000,-0.011803,-0.024097,-0.016764,-0.010750,-0.037846
658.000000,0.009340,-0.021355,-0.015418,-0.009996,0.020409
659.000000,-0.006854,-0.017248,-0.014395,-0.008972,-0.000871
660.000000,-0.003266,-0.015092,-0.014101,-0.009370,-0.004893
661.000000,-0.010939,-0.009429,-0.013894,-0.009788,-0.031494
662.000000,-0.012316,-0.012059,-0.015239,-0.011667,-0.044731
663.000000,-0.020910,-0.005785,-0.015133,-0.013473,-0.022559
664.000000,-0.024443,-0.015648,-0.015809,-0.014974,-0.018539
665.000000,-0.027564,-0.015415,-0.017027,-0.016098,-0.020496
666.000000,-0.018708,-0.014824,-0.018220,-0.014953,0.012785
667.000000,0.003337,-0.004490,-0.014293,-0.012672,0.065493
668.000000,0.010801,-0.005054,-0.013205,-0.011964,0.014763
669.000000,0.016006,-0.004219,-0.010734,-0.011003,0.007482
670.000000,0.010305,-0.008630,-0.011861,-0.012277,-0.048999
671.000000,0.010140,-0.004284,-0.006857,-0.010691,0.011958
672.000000,-0.003943,-0.000303,-0.006181,-0.010260,-0.004918
673.000000,-0.012666,-0.000932,-0.003358,-0.010399,-0.028854
674.000000,-0.010603,0.002701,-0.006474,-0.009639,0.017795
675.000000,-0.003428,0.003438,-0.005988,-0.010205,-0.013123
676.000000,-0.006403,0.001868,-0.006478,-0.011524,-0.002918
677.000000,-0.013855,-0.008899,-0.006694,-0.012495,-0.042179
678.000000,-0.009267,-0.010966,-0.008010,-0.012459,-0.005911
679.000000,-0.010995,-0.010799,-0.007509,-0.010755,0.009157
680.000000,-0.003646,-0.003537,-0.006083,-0.009086,0.023620
681.000000,-0.003816,-0.005109,-0.004697,-0.006274,-0.003766
682.000000,0.003265,-0.005295,-0.002799,-0.005886,-0.006774
683.000000,0.007699,-0.000784,-0.000858,-0.002500,0.016261
684.000000,0.005553,-0.002721,-0.000010,-0.005223,-0.001575
685.000000,-0.006147,-0.004897,-0.000729,-0.005624,-0.034880
686.000000,-0.007444,-0.005630,-0.001881,-0.006195,-0.010252
687.000000,-0.008578,-0.002656,-0.005778,-0.005348,-0.012443
688.000000,-0.025653,-0.008977,-0.009971,-0.008332,-0.069112
689.000000,-0.038795,-0.016621,-0.013710,-0.010546,-0.067285
690.000000,-0.025092,-0.015620,-0.009578,-0.009262,0.033630
691.000000,-0.011451,-0.009448,-0.007279,-0.006280,0.057955
692.000000,0.000417,-0.004081,-0.004688,-0.003226,0.046897
693.000000,0.024785,-0.000434,-0.000609,-0.000717,0.052729
694.000000,0.043160,0.002182,-0.000269,0.000721,0.024587
695.000000,0.042359,0.008633,0.001868,0.002392,0.029626
696.000000,0.033334,0.010941,0.002656,0.002393,0.012829
697.000000,0.021201,0.010809,0.004076,-0.000249,-0.013765
698.000000,0.004686,0.014736,0.002879,-0.001736,-0.029847
699.000000,-0.001665,0.020747,0.002063,-0.002224,-0.007166
700.000000,-0.009504,0.016428,0.000404,-0.000910,-0.009569
701.000000,-0.008183,0.012575,0.001564,-0.000661,0.019433
702.000000,-0.005661,0.007770,0.001845,-0.000535,-0.001155
703.000000,-0.002994,0.000846,0.000206,-0.000124,-0.016513
704.000000,-0.002779,-0.002222,-0.000020,-0.000920,-0.006091
705.000000,-0.008908,-0.009206,-0.000286,-0.001823,-0.040215
706.000000,-0.018033,-0.013108,-0.001083,-0.002599,-0.026191
707.000000,-0.015832,-0.010746,0.000031,-0.000865,0.009850
708.000000,-0.020442,-0.011718,0.001509,-0.001986,-0.039563
709.000000,-0.029006,-0.015892,0.002428,-0.003922,-0.048910
710.000000,-0.013099,-0.011004,0.002712,-0.003399,0.039317
711.000000,-0.005596,-0.011814,0.000380,-0.002896,0.011327
712.000000,-0.010270,-0.013051,-0.002640,-0.003120,-0.013520
713.000000,-0.001656,-0.011049,-0.005101,-0.003546,0.003506
714.000000,0.006853,-0.011076,-0.006649,-0.003705,-0.006365
715.000000,-0.012333,-0.012716,-0.010961,-0.004430,-0.056615
716.000000,-0.028291,-0.016943,-0.015026,-0.006370,-0.068460
717.000000,-0.028553,-0.019411,-0.015079,-0.006450,-0.014830
718.000000,-0.036631,-0.019143,-0.015431,-0.005375,-0.036884
719.000000,-0.038749,-0.015948,-0.015920,-0.003698,-0.016959
720.000000,-0.035776,-0.024054,-0.017529,-0.006210,-0.041747
721.000000,-0.033257,-0.030774,-0.021294,-0.010004,-0.055864
722.000000,-0.031888,-0.030220,-0.021636,-0.011834,-0.007987
723.000000,-0.009800,-0.023215,-0.017132,-0.011139,0.073556
724.000000,-0.009691,-0.024220,-0.017648,-0.012506,-0.016414
725.000000,-0.001342,-0.018559,-0.015638,-0.013494,0.000000
726.000000,0.004429,-0.014414,-0.015678,-0.014822,-0.027009
727.000000,0.004057,-0.013915,-0.016663,-0.014691,-0.009847
728.000000,-0.012056,-0.010928,-0.015036,-0.013930,-0.007009
729.000000,-0.005056,-0.007374,-0.011661,-0.013071,0.018584
730.000000,-0.001069,-0.001205,-0.012630,-0.012088,0.019938
731.000000,0.003202,0.003815,-0.013479,-0.012924,-0.005656
732.000000,0.002142,0.003100,-0.013560,-0.013390,-0.015145
733.000000,-0.000705,-0.006380,-0.014798,-0.013548,-0.021243
734.000000,-0.018746,-0.011901,-0.018061,-0.015733,-0.071622
735.000000,-0.028829,-0.014949,-0.016754,-0.015408,-0.030475
736.000000,-0.034927,-0.015863,-0.015138,-0.015740,-0.036151
737.000000,-0.051319,-0.024588,-0.019252,-0.019305,-0.097102
738.000000,-0.041492,-0.021098,-0.016013,-0.017056,0.027892
739.000000,-0.008454,-0.013600,-0.010487,-0.012307,0.093565
740.000000,-0.008042,-0.018435,-0.009820,-0.014565,-0.028416
741.000000,-0.020316,-0.027621,-0.011903,-0.018193,-0.097517
742.000000,-0.008593,-0.029956,-0.013428,-0.019025,-0.038488
743.000000,-0.017067,-0.029279,-0.017830,-0.019625,-0.014479
744.000000,-0.027367,-0.017910,-0.014906,-0.018011,0.042067
745.000000,-0.030333,-0.019188,-0.017068,-0.017565,-0.043250
746.000000,-0.019954,-0.020135,-0.017999,-0.016804,-0.045618
747.000000,-0.013167,-0.010880,-0.017734,-0.016461,-0.004554
748.000000,0.010369,-0.003349,-0.012224,-0.011792,0.103201
749.000000,0.023775,-0.001796,-0.007698,-0.007590,0.109096
750.000000,0.030605,0.000136,-0.009150,-0.006502,-0.009102
751.000000,0.037069,0.008558,-0.009532,-0.005083,-0.013295
752.000000,0.031918,0.009375,-0.010290,-0.005827,-0.030311
753.000000,0.006698,0.008533,-0.010373,-0.009042,-0.022899
754.000000,-0.006410,0.008682,-0.004614,-0.007043,0.043554
755.000000,-0.005702,0.012451,-0.003368,-0.007228,-0.005559
756.000000,-0.003322,0.016874,-0.001630,-0.006375,-0.001395
757.000000,-0.015897,0.008011,-0.001435,-0.009152,-0.093184
758.000000,-0.024536,-0.008919,-0.006134,-0.011122,-0.066097
759.000000,-0.026251,-0.016331,-0.009063,-0.010576,0.034978
760.000000,-0.033944,-0.019823,-0.009844,-0.012708,-0.044021
761.000000,-0.039871,-0.021596,-0.006519,-0.013553,-0.031030
762.000000,-0.045665,-0.030781,-0.010703,-0.017120,-0.122158
763.000000,-0.012494,-0.018515,-0.004991,-0.013087,0.099763
764.000000,-0.049609,-0.037930,-0.014624,-0.015719,-0.150600
765.000000,-0.071618,-0.052781,-0.020165,-0.019839,-0.154066
766.000000,-0.083191,-0.061531,-0.022329,-0.021597,-0.088893
767.000000,-0.021308,-0.033486,-0.012738,-0.012119,0.187259
768.000000,-0.025416,-0.018955,-0.013937,-0.010408,0.079219
769.000000,-0.004092,-0.026851,-0.021591,-0.014992,-0.043980
770.000000,0.040016,-0.015801,-0.017812,-0.011829,0.066475
771.000000,0.059144,-0.012023,-0.016810,-0.008354,0.006747
772.000000,0.030432,0.004562,-0.013109,-0.005614,0.043700
773.000000,0.018143,-0.003637,-0.011076,-0.004539,0.017772
774.000000,0.019578,0.007743,-0.015094,-0.007168,-0.036803
775.000000,0.000000,0.020008,-0.016387,-0.006774,-0.031416
776.000000,0.000671,0.029908,-0.015812,-0.004917,0.010104
777.000000,0.008374,0.019403,-0.007042,-0.002024,0.082213
778.000000,0.000901,0.009522,-0.004716,-0.006117,-0.019591
779.000000,-0.020199,-0.000311,-0.013581,-0.014497,-0.142306
780.000000,-0.054592,-0.027296,-0.021549,-0.020973,-0.203382
781.000000,-0.053587,-0.026458,-0.019241,-0.020026,0.015133
782.000000,-0.085101,-0.038364,-0.016901,-0.021527,-0.075360
783.000000,-0.071181,-0.035140,-0.019388,-0.019097,0.050010
784.000000,-0.026336,-0.023268,-0.007762,-0.017818,0.081917
785.000000,0.026722,-0.013935,0.003036,-0.015569,0.061911
786.000000,0.019199,-0.017194,0.006357,-0.016272,-0.022485
787.000000,0.027800,-0.028651,-0.004624,-0.014245,-0.032354
788.000000,0.034248,-0.018466,-0.004472,-0.009300,0.082254
789.000000,-0.005394,-0.015865,-0.008088,-0.014342,-0.116297
790.000000,-0.016686,0.005018,-0.011139,-0.012693,0.005453
791.000000,-0.001140,0.009029,-0.008714,-0.009817,0.055243
792.000000,0.021682,0.024741,-0.006811,-0.003020,0.081757
793.000000,0.005442,0.019845,-0.007647,-0.006310,0.001053
794.000000,0.024661,0.009633,-0.006817,-0.001964,-0.020203
795.000000,0.036263,0.009788,-0.002073,0.005287,0.063464
796.000000,0.038474,0.018667,0.000737,0.010460,0.066301
797.000000,0.026324,0.024003,-0.002324,0.004918,0.021004
798.000000,0.036902,0.021172,0.001353,0.004076,0.053946
799.000000,0.019433,0.022047,0.003091,0.001957,-0.107551
800.000000,-0.001112,0.017575,0.011297,-0.001568,-0.039260
801.000000,-0.013563,0.012456,0.010742,-0.001658,0.004047
802.000000,-0.003918,0.011203,0.017972,-0.000807,0.069228
803.000000,-0.021121,0.007891,0.013868,-0.002468,-0.032068
804.000000,-0.011845,0.003794,0.006714,-0.003280,-0.061172
805.000000,0.029537,0.014213,0.012000,0.003355,0.167651
806.000000,0.036363,0.011400,0.015034,0.004291,0.038177
807.000000,0.023860,0.009971,0.016987,0.001774,0.006711
808.000000,0.016517,-0.002302,0.009435,0.000135,-0.068784
809.000000,0.036568,0.012361,0.017204,0.006181,0.039083
810.000000,-0.017347,0.006095,0.011835,0.009563,-0.101921
811.000000,-0.013222,0.011571,0.012013,0.011018,0.058800
812.000000,-0.022078,0.000891,0.006047,0.012278,-0.037567
813.000000,-0.005355,0.005581,0.006736,0.011106,0.014829
814.000000,-0.013540,0.011514,0.007654,0.008314,-0.001842
815.000000,0.013194,-0.002077,0.006068,0.007308,0.031749
816.000000,-0.011188,-0.012205,-0.000403,0.005954,-0.063111
817.000000,-0.009171,-0.015624,-0.002827,0.006117,-0.027478
818.000000,-0.010288,-0.007822,-0.005062,0.003683,0.009244
819.000000,0.001835,-0.005853,0.003254,0.009518,0.058771
820.000000,-0.000805,0.006194,0.006145,0.009955,0.018548
821.000000,0.018863,0.003837,0.007704,0.009288,0.035230
822.000000,0.025136,0.007983,0.004437,0.006692,0.003887
823.000000,0.046997,0.018355,0.011968,0.010609,0.118549
824.000000,0.031845,0.016840,0.014177,0.010716,-0.016989
825.000000,0.023008,0.011101,0.004512,0.007746,-0.025637
826.000000,0.010207,0.014535,0.001165,0.004577,-0.028776
827.000000,0.016618,0.020877,0.002626,0.005075,0.035942
828.000000,0.013829,0.030413,0.011296,0.006763,0.104607
829.000000,0.018793,0.025319,0.009733,0.010609,0.007829
830.000000,0.027852,0.025430,0.015812,0.012573,0.019657
831.000000,0.038483,0.024345,0.014091,0.013251,0.024379
832.000000,0.021635,0.019126,0.013554,0.009333,-0.048298
833.000000,0.007984,0.010907,0.014631,0.011614,0.036355
834.000000,0.021490,0.020141,0.018491,0.016165,0.075358
835.000000,0.016537,0.022194,0.016648,0.010406,-0.005107
836.000000,0.007849,0.023166,0.018850,0.008499,-0.019061
837.000000,0.011079,0.016357,0.018617,0.007203,-0.032149
838.000000,-0.007699,0.000143,0.015278,0.007578,-0.057535
839.000000,-0.021703,-0.000106,0.012606,0.006453,0.005337
840.000000,-0.020256,-0.001859,0.011785,0.009922,0.002127
841.000000,-0.013771,-0.002961,0.010692,0.008407,0.013366
842.000000,-0.015325,-0.002123,0.008502,0.008329,-0.039920
843.000000,0.004515,-0.001592,0.004657,0.009223,0.041665
844.000000,0.008136,-0.006783,0.006679,0.010066,0.023441
845.000000,0.002883,-0.008687,0.006754,0.008203,-0.024139
846.000000,0.001115,-0.006328,0.008419,0.010458,0.004527
847.000000,0.017735,0.001205,0.008781,0.012813,0.043182
848.000000,0.012834,0.008674,0.004409,0.013077,0.017156
849.000000,0.007030,0.007583,0.003738,0.010932,-0.005577
850.000000,0.014732,0.008807,0.003474,0.010793,0.014370
851.000000,0.015441,0.008278,0.002659,0.009887,0.008074
852.000000,0.002184,0.009960,0.003919,0.008988,-0.023102
853.000000,-0.009581,0.001626,0.000017,0.003647,-0.041673
854.000000,-0.002983,0.002024,-0.002380,0.005127,0.027418
855.000000,-0.016837,-0.001053,-0.004870,0.004152,-0.054902
856.000000,-0.010499,0.002471,-0.001928,0.006436,0.039763
857.000000,0.009073,0.005629,0.003417,0.007730,0.074762
858.000000,0.021887,0.006153,0.007414,0.004990,0.022396
859.000000,0.019335,0.008176,0.007880,0.005218,0.014657
860.000000,0.030860,0.007012,0.007909,0.004653,0.002724
861.000000,0.025132,0.007317,0.007797,0.004211,0.011123
862.000000,0.019354,0.014213,0.012087,0.007350,0.045868
863.000000,0.009021,0.015454,0.008540,0.005163,-0.029265
864.000000,0.001811,0.010573,0.006298,0.001938,-0.021398
865.000000,-0.011895,0.009483,0.004215,-0.000085,-0.065801
866.000000,-0.021638,0.001747,0.002109,-0.000703,-0.037592
867.000000,-0.032954,-0.006800,-0.000586,0.000011,-0.010717
868.000000,-0.022838,-0.006908,-0.000378,0.002640,0.021320
869.000000,-0.027317,-0.012753,-0.002288,0.001002,-0.043793
870.000000,-0.008520,-0.010207,-0.001598,0.001871,0.028180
871.000000,0.002252,-0.009693,-0.001188,0.001967,0.016271
872.000000,0.007598,-0.012678,0.000768,0.003832,0.016011
873.000000,0.003981,-0.009428,0.003013,0.002551,0.003236
874.000000,0.025324,-0.000996,0.004788,0.003867,0.062922
875.000000,0.009225,0.000352,0.004918,0.002928,-0.052316
876.000000,-0.006903,-0.002325,-0.000289,0.000631,-0.064368
877.000000,0.004931,0.006264,-0.000268,0.001698,0.075179
878.000000,0.011184,0.007583,0.000337,0.002276,0.034502
879.000000,-0.002442,0.011441,-0.000656,0.002288,-0.005208
880.000000,0.012275,0.010750,0.000271,0.002518,0.021271
881.000000,0.016548,0.004823,-0.002435,0.000816,-0.043004
882.000000,0.002577,0.003754,-0.004462,0.001763,0.005322
883.000000,-0.006080,0.002552,-0.003438,0.002859,-0.008780
884.000000,0.001164,-0.000639,-0.000818,0.002979,0.031010
885.000000,-0.002542,0.004867,0.002610,0.004901,0.002744
886.000000,0.012295,0.014421,0.006048,0.004614,0.031178
887.000000,0.004385,0.003481,0.004873,0.000982,-0.034227
888.000000,0.010073,0.001996,0.004789,0.000890,0.019659
889.000000,0.004528,0.002846,0.007144,0.000511,0.003289
890.000000,0.003920,0.000689,0.005720,0.000411,-0.000299
891.000000,-0.009675,0.001310,0.003066,-0.001187,-0.036799
892.000000,-0.003948,0.000218,0.001986,-0.002902,-0.005592
893.000000,-0.013953,-0.001940,0.000306,-0.002939,-0.030363
894.000000,-0.012248,-0.003860,-0.002249,-0.001832,0.011812
895.000000,-0.016292,-0.006186,-0.000660,-0.000322,-0.020520
896.000000,-0.013321,-0.011498,0.001462,0.000199,-0.021943
897.000000,-0.018322,-0.011135,-0.003827,-0.000463,-0.030596
898.000000,-0.013070,-0.013512,-0.005758,-0.001311,-0.004105
899.000000,-0.016878,-0.014563,-0.005858,-0.000092,-0.007225
900.000000,-0.016820,-0.016556,-0.007934,-0.001706,-0.020231
901.000000,-0.011447,-0.012384,-0.005537,-0.002084,0.004921
902.000000,0.009143,-0.004590,-0.002186,-0.000206,0.072353
903.000000,0.009114,-0.001978,-0.001959,-0.000455,-0.004249
904.000000,0.002675,-0.007101,-0.005481,-0.003867,-0.039417
905.000000,0.008890,-0.003965,-0.005076,-0.001761,0.010844
906.000000,0.003683,-0.003882,-0.007690,-0.000320,-0.021118
907.000000,-0.012308,-0.001583,-0.006359,-0.003079,-0.007602
908.000000,-0.009732,-0.000309,-0.006910,-0.003941,0.008634
909.000000,0.001020,0.001847,-0.006358,-0.003290,0.014340
910.000000,0.006890,0.007890,-0.004333,-0.002659,0.040198
911.000000,0.014344,0.009013,-0.001685,-0.000687,0.016150
912.000000,0.014643,0.001167,-0.001711,-0.001068,-0.006106
913.000000,0.023343,0.006805,0.002414,0.000962,0.052131
914.000000,0.017329,0.009174,0.001036,-0.000596,-0.015729
915.000000,0.002909,0.004900,0.000468,-0.001750,-0.031899
916.000000,0.001214,0.007779,0.001948,-0.002534,0.007673
917.000000,-0.002335,0.006154,0.002286,-0.002188,-0.023849
918.000000,-0.009013,0.007165,0.003428,-0.002219,0.018740
919.000000,-0.002944,0.007193,0.004520,-0.001841,0.014617
920.000000,0.004318,0.003614,0.005752,-0.001684,0.004407
921.000000,-0.001278,-0.000032,0.004491,-0.001134,-0.020305
922.000000,0.002850,0.000258,0.000712,-0.001055,-0.003210
923.000000,-0.003879,-0.006446,0.000180,-0.000540,-0.014901
924.000000,-0.003500,-0.003222,0.002976,-0.000383,0.016508
925.000000,0.001689,0.003003,0.003952,0.001313,0.030353
926.000000,0.013148,0.005935,0.006857,0.003277,0.036990
927.000000,0.021733,0.012292,0.009223,0.005621,0.039717
928.000000,0.022626,0.009374,0.008269,0.005410,-0.010438
929.000000,0.022103,0.009301,0.008247,0.006114,0.013893
930.000000,0.009310,0.005499,0.004556,0.005668,-0.033614
931.000000,-0.000782,0.006183,0.003076,0.005055,-0.013467
932.000000,-0.008304,0.006715,0.003486,0.002713,0.002107
933.000000,-0.006337,0.008145,0.000850,0.002835,-0.000602
934.000000,-0.009236,0.006434,0.001606,0.004129,-0.000602
935.000000,-0.006895,0.001207,0.002105,0.003037,-0.021912
936.000000,0.000301,-0.000240,0.002847,0.004491,0.022514
937.000000,0.001438,-0.003433,0.004429,0.005004,0.007791
938.000000,-0.004503,-0.005420,0.001977,0.003706,-0.030305
939.000000,-0.004752,-0.006994,0.001154,0.003167,-0.001848
940.000000,-0.004732,-0.005814,-0.000157,0.001100,-0.021815
941.000000,0.001737,0.001019,0.003601,0.002390,0.054863
942.000000,0.000477,0.000958,0.003836,0.002643,0.001490
943.000000,0.016868,0.006183,0.007164,0.002627,0.051651
944.000000,0.014504,0.004876,0.005655,0.002696,-0.013668
945.000000,0.020182,0.007725,0.004466,0.003978,0.006572
946.000000,0.011024,0.006380,0.003070,0.004025,0.009073
947.000000,0.007597,0.004037,0.000302,0.004298,-0.015645
948.000000,-0.006262,0.005303,-0.000058,0.003086,-0.017643
949.000000,-0.010899,0.001802,-0.002596,0.001370,-0.036854
950.000000,-0.014161,0.003010,-0.001402,0.000899,-0.009735
951.000000,-0.010964,0.000030,0.000525,0.002411,0.025058
952.000000,-0.009752,-0.001078,-0.000060,0.002198,-0.009587
953.000000,-0.004247,-0.005254,0.000464,0.003024,0.009885
954.000000,0.002228,-0.004336,0.000270,0.002325,-0.004481
955.000000,0.008030,-0.003066,0.002329,0.001955,0.019274
956.000000,0.006512,-0.002226,0.002077,0.001305,0.017468
957.000000,0.009293,-0.000230,0.001904,0.000125,0.004320
958.000000,0.007316,0.001535,0.003419,0.000473,0.000000
959.000000,0.008786,0.005507,0.003655,0.000105,0.002869
960.000000,-0.000294,0.003868,0.003439,0.000355,-0.026126
961.000000,-0.002322,0.002095,0.001062,0.001048,0.007326
962.000000,-0.008212,0.000540,-0.000269,0.000140,-0.025131
963.000000,-0.011838,-0.002261,-0.003758,-0.000444,-0.018127
964.000000,-0.015794,-0.003504,-0.003920,-0.000988,-0.016910
965.000000,-0.016548,-0.008421,-0.005743,-0.001254,-0.029900
966.000000,-0.024178,-0.013250,-0.007738,-0.003032,-0.030822
967.000000,-0.013628,-0.010920,-0.005575,-0.002371,0.027622
968.000000,-0.013886,-0.012862,-0.005664,-0.002008,-0.019418
969.000000,-0.001556,-0.008675,-0.001584,-0.000455,0.044736
970.000000,0.005359,-0.005595,-0.000863,0.000428,0.004677
971.000000,0.017649,-0.003264,-0.000585,-0.000380,0.030630
972.000000,0.013628,0.000000,0.000270,-0.000179,0.007513
973.000000,0.017212,0.001663,-0.000299,-0.001951,-0.001498
974.000000,0.003715,0.001079,-0.001212,-0.002253,-0.022745
975.000000,0.008823,0.007091,-0.000665,-0.001465,0.030214
976.000000,-0.000302,0.008674,-0.002288,-0.002268,-0.014993
977.000000,0.005900,0.009764,-0.000578,-0.000462,0.038523
978.000000,0.005909,0.011560,-0.000651,0.000078,-0.001455
979.000000,0.017887,0.010801,0.001063,0.002544,0.037147
980.000000,0.007878,0.008351,0.001378,0.002208,-0.019831
981.000000,0.012018,0.005858,0.001297,0.001563,0.005706
982.000000,0.006858,0.006379,0.003189,0.002306,0.012721
983.000000,0.000291,0.003100,0.002381,0.000834,-0.034289
984.000000,-0.015448,0.001220,0.001149,-0.000402,-0.041549
985.000000,0.006198,0.007038,0.007064,0.001903,0.088399
986.000000,0.006989,0.009504,0.009089,0.001642,0.009662
987.000000,0.006902,0.006880,0.008322,0.001908,0.012287
988.000000,0.018586,0.009438,0.010499,0.002712,0.024130
989.000000,0.028479,0.006515,0.008658,0.002880,0.007916
990.000000,0.015217,0.010708,0.009529,0.004488,0.022093
991.000000,0.019112,0.013050,0.009454,0.005215,0.029134
992.000000,0.013128,0.010015,0.008197,0.005465,-0.017633
993.000000,0.007027,0.012807,0.007953,0.005856,-0.006374
994.000000,0.008993,0.018736,0.009978,0.007012,0.017744
995.000000,0.001536,0.008377,0.007708,0.007502,-0.015190
996.000000,-0.001504,0.008804,0.009154,0.008994,0.013933
997.000000,0.008946,0.011037,0.008958,0.009227,0.034614
998.000000,0.012155,0.009591,0.009515,0.010197,0.009674
999.000000,0.005453,0.007223,0.006869,0.008180,-0.015767
1000.000000,0.012125,0.006831,0.008769,0.008630,0.018171
1001.000000,0.010057,0.004277,0.008664,0.007728,0.003595
1002.000000,0.005749,0.007347,0.008681,0.007914,0.013072
1003.000000,0.004756,0.008456,0.010631,0.008121,0.004711
1004.000000,0.004592,0.005022,0.011879,0.008326,-0.016588
1005.000000,0.000719,0.006422,0.007399,0.007279,-0.001195
1006.000000,-0.000239,0.004909,0.006857,0.007739,-0.001197
1007.000000,-0.000236,0.002756,0.006897,0.006891,0.013088
1008.000000,0.001172,0.002964,0.006278,0.007331,0.011751
1009.000000,0.000000,0.002296,0.004760,0.005345,-0.022446
1010.000000,-0.001682,-0.000481,0.003175,0.005686,-0.009604
1011.000000,-0.006574,-0.003407,0.000435,0.004640,-0.025658
1012.000000,-0.012939,-0.006588,0.000380,0.003592,-0.018739
1013.000000,-0.011789,-0.005309,0.001573,0.005318,0.017500
1014.000000,-0.010296,-0.005148,-0.000063,0.006203,-0.014982
1015.000000,-0.006622,-0.004152,0.001135,0.003549,0.008766
1016.000000,0.003679,-0.001448,0.001731,0.004089,0.025848
1017.000000,0.003748,-0.004596,-0.000920,0.003066,-0.018394
1018.000000,0.000742,-0.005524,-0.001280,0.002344,0.002472
1019.000000,0.003738,-0.003279,-0.000491,0.002080,0.000000
1020.000000,-0.001753,-0.004188,-0.002335,0.000721,-0.018692
1021.000000,-0.001463,0.001108,-0.001149,0.000659,0.027297
1022.000000,0.004649,0.004198,-0.001195,0.001653,0.012166
1023.000000,0.006319,0.003530,-0.000889,0.002226,0.010824
1024.000000,0.001476,0.002607,-0.001270,0.000827,-0.024214
1025.000000,-0.000252,-0.001003,-0.002577,0.000422,-0.027331
1026.000000,-0.005711,-0.003587,-0.002517,-0.000042,0.000000
1027.000000,-0.005641,-0.000496,-0.002546,-0.000779,0.012516
1028.000000,-0.004598,0.000860,-0.002332,-0.000566,0.016040
1029.000000,0.006273,0.003875,0.000298,0.000964,0.030141
1030.000000,0.006200,0.002974,-0.000607,-0.000565,-0.027696
1031.000000,-0.002025,-0.003868,-0.001380,-0.002056,-0.041127
1032.000000,-0.004274,-0.004958,-0.000380,-0.002449,0.001271
1033.000000,-0.003956,-0.004277,-0.000373,-0.002018,0.017633
1034.000000,-0.009734,-0.001731,0.000438,-0.001424,0.001248
1035.000000,-0.004195,0.001003,0.000000,-0.001384,0.000000
1036.000000,0.007246,0.002610,-0.000488,-0.000808,0.016080
1037.000000,0.005761,0.000743,0.000124,-0.001450,-0.006154
1038.000000,-0.000750,-0.002353,-0.000746,-0.002339,-0.014926
1039.000000,-0.000250,-0.004992,-0.000559,-0.001465,0.003752
1040.000000,-0.002005,-0.003100,-0.000063,-0.001438,-0.008777
1041.000000,-0.010582,-0.001668,-0.002768,-0.001476,-0.026804
1042.000000,-0.006015,-0.000127,-0.002542,-0.000296,0.016678
1043.000000,-0.019187,-0.009969,-0.007123,-0.003572,-0.080785
1044.000000,-0.022996,-0.011623,-0.006677,-0.003582,-0.015289
1045.000000,-0.024345,-0.013175,-0.006086,-0.004392,-0.015526
1046.000000,-0.013651,-0.012116,-0.004753,-0.004364,0.026668
1047.000000,-0.013962,-0.009989,-0.004623,-0.003247,0.015121
1048.000000,0.001100,-0.009043,-0.005698,-0.003512,-0.005472
1049.000000,0.001674,-0.010661,-0.007826,-0.003926,-0.012423
1050.000000,0.000568,-0.011889,-0.007494,-0.004005,-0.021053
1051.000000,-0.014056,-0.013853,-0.007761,-0.006463,-0.046452
1052.000000,-0.017974,-0.015968,-0.008048,-0.007018,-0.004468
1053.000000,-0.014505,-0.006702,-0.008336,-0.006983,0.011870
1054.000000,-0.011138,-0.004732,-0.008177,-0.006028,0.004415
1055.000000,-0.012586,-0.006009,-0.009592,-0.006061,-0.028297
1056.000000,0.004699,-0.004678,-0.008397,-0.004728,0.039976
1057.000000,0.006172,-0.005901,-0.007945,-0.005049,0.002899
1058.000000,0.004088,-0.005209,-0.007126,-0.005535,0.001446
1059.000000,0.001171,-0.004983,-0.007822,-0.006879,-0.010167
1060.000000,0.003889,-0.004349,-0.008119,-0.006446,-0.014706
1061.000000,-0.006790,-0.001046,-0.007449,-0.005522,-0.013423
1062.000000,-0.005576,0.000298,-0.007835,-0.005266,0.008969
1063.000000,-0.008864,-0.002388,-0.004545,-0.006353,-0.014993
1064.000000,-0.006227,-0.002528,-0.003630,-0.006294,0.003017
1065.000000,-0.001189,0.001350,-0.002329,-0.005945,0.010487
1066.000000,0.012513,0.002861,-0.000908,-0.004644,0.055086
1067.000000,0.010719,0.002572,-0.001665,-0.004439,0.000000
1068.000000,0.016797,0.003967,-0.000621,-0.003429,0.015396
1069.000000,0.014520,0.004146,-0.000418,-0.003833,-0.008368
1070.000000,0.012423,0.005617,0.000634,-0.003540,0.000000
1071.000000,-0.002841,0.004836,0.001895,-0.003354,-0.021232
1072.000000,0.000563,0.005641,0.002970,-0.003343,0.017022
1073.000000,-0.002516,0.007141,0.002376,-0.000650,0.000000
1074.000000,-0.001405,0.006557,0.002015,-0.000234,-0.002817
1075.000000,-0.002537,0.004943,0.003147,0.000095,-0.005658
1076.000000,0.002276,-0.000282,0.001289,-0.000700,0.002833
1077.000000,-0.005128,-0.002283,0.000145,-0.001871,-0.020001
1078.000000,-0.004552,-0.003534,0.000216,-0.001592,0.002882
1079.000000,-0.006304,-0.003855,0.000146,-0.001564,-0.011578
1080.000000,-0.008401,-0.005469,0.000074,-0.001400,-0.016141
1081.000000,-0.011049,-0.004387,0.000225,-0.000199,-0.010409
1082.000000,-0.006452,-0.005790,-0.000074,0.000050,0.002985
1083.000000,-0.005544,-0.005048,0.001046,-0.000098,0.007424
1084.000000,0.000000,-0.003152,0.001703,0.000292,0.016141
1085.000000,0.003519,-0.002441,0.001251,0.001284,0.001455
1086.000000,-0.000899,-0.005974,-0.003128,-0.001132,-0.032499
1087.000000,-0.001496,-0.003974,-0.003128,-0.001228,0.000000
1088.000000,-0.002381,-0.003962,-0.003748,-0.001177,0.002999
1089.000000,-0.003821,-0.001910,-0.002883,-0.000540,0.008942
1090.000000,-0.011980,-0.004230,-0.004850,-0.001361,-0.039339
1091.000000,-0.013992,-0.007445,-0.005916,-0.002332,-0.042560
1092.000000,-0.006718,-0.004107,-0.004949,-0.001419,0.036368
1093.000000,-0.008877,-0.005629,-0.005338,-0.001179,-0.007794
1094.000000,-0.016058,-0.009939,-0.006546,-0.002178,-0.026964
1095.000000,-0.004053,-0.008016,-0.005229,-0.001838,0.020685
1096.000000,0.006340,-0.003826,-0.004900,-0.003361,0.009404
1097.000000,-0.001246,-0.003982,-0.003978,-0.003413,-0.001561
1098.000000,0.004641,-0.002118,-0.003040,-0.003205,0.021639
1099.000000,0.009727,-0.003165,-0.002538,-0.002977,-0.001530
1100.000000,0.004053,0.000000,-0.002115,-0.003233,-0.007686
1101.000000,0.000312,0.003326,-0.002060,-0.002835,-0.009302
1102.000000,0.006759,0.002757,-0.000675,-0.002380,0.030677
1103.000000,0.003636,0.004139,-0.000745,-0.002179,0.006024
1104.000000,0.005140,0.007434,-0.001253,-0.001886,0.005988
1105.000000,0.006677,0.005365,-0.001326,-0.001697,0.000000
1106.000000,0.006437,0.003375,-0.000226,-0.002142,-0.010503
1107.000000,-0.002126,0.002317,-0.000833,-0.001880,-0.012140
1108.000000,-0.011432,-0.003898,-0.003008,-0.003326,-0.040504
1109.000000,-0.015512,-0.005186,-0.004176,-0.003420,-0.014412
1110.000000,-0.012948,-0.003135,-0.001568,-0.002455,0.012821
1111.000000,-0.011166,-0.002364,0.000481,-0.002161,-0.001594
1112.000000,-0.009057,-0.005592,-0.001417,-0.002314,-0.001596
1113.000000,-0.017258,-0.014345,-0.005103,-0.005278,-0.081508
1114.000000,-0.032504,-0.024008,-0.008287,-0.008838,-0.090642
1115.000000,-0.034689,-0.023818,-0.009226,-0.008823,0.001896
1116.000000,-0.029505,-0.020336,-0.008481,-0.006929,0.024323
1117.000000,-0.021214,-0.015136,-0.006409,-0.005600,0.039860
1118.000000,-0.000347,-0.008802,-0.006350,-0.004939,0.022828
1119.000000,-0.002674,-0.017589,-0.011387,-0.008647,-0.102279
1120.000000,-0.011699,-0.023194,-0.013165,-0.008776,-0.043229
1121.000000,-0.012982,-0.021244,-0.011804,-0.006761,0.017911
1122.000000,-0.024938,-0.023076,-0.014334,-0.008637,-0.019921
1123.000000,-0.035633,-0.017990,-0.016167,-0.009399,-0.030646
1124.000000,-0.027146,-0.014910,-0.019459,-0.010495,-0.059847
1125.000000,-0.010724,-0.011212,-0.017515,-0.009888,0.038882
1126.000000,-0.006821,-0.009901,-0.015118,-0.008954,0.037426
1127.000000,0.002002,-0.011468,-0.013302,-0.008096,0.024195
1128.000000,0.017471,-0.009081,-0.008942,-0.007260,0.046701
1129.000000,0.032834,0.002844,-0.007373,-0.006644,0.016966
1130.000000,0.024683,0.006980,-0.008107,-0.006450,-0.001871
1131.000000,0.019433,0.006306,-0.007469,-0.005767,0.011173
1132.000000,0.016070,0.009036,-0.007020,-0.006544,0.007380
1133.000000,-0.001910,0.007781,-0.005105,-0.008185,-0.043199
1134.000000,-0.008009,0.012413,-0.001249,-0.008835,-0.013527
1135.000000,-0.009590,0.007547,-0.001832,-0.009161,-0.009775
1136.000000,-0.012218,0.003608,-0.003147,-0.008876,-0.001967
1137.000000,-0.011345,0.002362,-0.004553,-0.008080,0.011742
1138.000000,-0.000384,-0.001147,-0.005114,-0.006343,0.011606
1139.000000,0.006131,-0.000939,0.000952,-0.005228,0.019048
1140.000000,0.013300,0.001855,0.004417,-0.004786,0.026072
1141.000000,0.005437,-0.003390,0.001458,-0.006109,-0.041282
1142.000000,0.005753,-0.002796,0.003120,-0.005612,0.013321
1143.000000,0.002674,0.001145,0.004463,-0.003021,-0.003788
1144.000000,-0.001896,0.002117,0.007265,-0.000127,-0.003802
1145.000000,-0.008256,0.002522,0.005034,-0.000381,-0.005731
1146.000000,0.000383,0.002910,0.003259,-0.001128,0.001914
1147.000000,0.000000,0.002877,0.002619,-0.002076,0.011407
1148.000000,-0.000760,0.000957,-0.000095,-0.003090,-0.007590
1149.000000,0.006004,0.002054,0.000558,0.001320,0.030021
1150.000000,0.007150,-0.000553,0.000651,0.002761,0.000000
1151.000000,0.006768,0.003575,0.000093,0.002164,0.000000
1152.000000,0.001507,0.000753,-0.001021,0.002331,-0.014898
1153.000000,0.000760,0.000000,0.000573,0.002975,-0.011321
1154.000000,-0.011019,-0.002507,-0.000195,0.004008,-0.028876
1155.000000,-0.011802,-0.002326,0.000098,0.002581,-0.003914
1156.000000,-0.013772,-0.003502,-0.000296,0.001005,-0.009852
1157.000000,-0.015197,-0.006845,-0.001984,-0.000535,-0.022023
1158.000000,-0.017437,-0.008338,-0.003691,-0.002843,-0.022519
1159.000000,-0.014162,-0.012590,-0.005268,-0.003825,-0.012500
1160.000000,-0.014219,-0.013010,-0.006782,-0.003903,-0.004202
1161.000000,-0.011828,-0.012800,-0.004612,-0.004205,0.002103
1162.000000,-0.009111,-0.012154,-0.005700,-0.004732,-0.008439
1163.000000,-0.011944,-0.014690,-0.007345,-0.004515,-0.036682
1164.000000,-0.007693,-0.010927,-0.006717,-0.003772,0.008753
1165.000000,-0.003397,-0.008808,-0.005567,-0.002871,0.017279
1166.000000,-0.003818,-0.007823,-0.005663,-0.002805,0.000000
1167.000000,0.004608,-0.002252,-0.004549,-0.002074,0.033687
1168.000000,0.018462,0.003259,-0.002540,-0.001374,0.032589
1169.000000,0.014292,0.003299,-0.004646,-0.002412,-0.012097
1170.000000,0.010836,0.003719,-0.004646,-0.003281,0.000000
1171.000000,0.010430,0.003306,-0.004747,-0.001973,-0.002030
1172.000000,0.010093,0.007350,-0.002402,-0.001350,0.032003
1173.000000,0.001994,0.010228,-0.002231,-0.001487,-0.007905
1174.000000,0.008343,0.011317,0.000195,-0.000706,0.019647
1175.000000,0.003219,0.007028,-0.000890,-0.001369,-0.025617
1176.000000,0.010299,0.010365,0.001271,-0.000320,0.033369
1177.000000,0.008479,0.009286,0.003517,0.000063,0.022902
1178.000000,0.011189,0.006592,0.004925,0.000504,0.005644
1179.000000,0.003089,0.005716,0.004508,-0.001192,-0.020854
1180.000000,0.007060,0.005139,0.004429,-0.001384,-0.005764
1181.000000,0.006084,0.008192,0.005749,-0.000434,0.028492
1182.000000,0.005948,0.007214,0.007282,0.000803,0.022223
1183.000000,0.009168,0.010178,0.010203,0.001905,0.021740
1184.000000,0.011538,0.007313,0.009315,0.002568,-0.009001
1185.000000,0.013413,0.010236,0.008632,0.002819,0.003610
1186.000000,0.004078,0.005081,0.007723,0.002541,-0.018182
1187.000000,-0.003697,0.001126,0.005206,0.002720,-0.016652
1188.000000,-0.008793,0.000187,0.003389,0.003346,-0.003738
1189.000000,-0.000362,0.005588,0.005652,0.004868,0.033152
1190.000000,0.004278,0.008846,0.006993,0.005901,0.026811
1191.000000,0.008970,0.006524,0.007358,0.006007,0.005277
1192.000000,0.014742,0.005522,0.006368,0.006695,0.012206
1193.000000,0.016181,0.003694,0.006936,0.008034,0.003460
1194.000000,0.008164,0.003901,0.005607,0.007511,-0.006932
1195.000000,0.002802,0.003540,0.006888,0.006935,0.000000
1196.000000,0.005537,0.007253,0.006167,0.007566,0.018950
1197.000000,-0.003497,0.005623,0.003374,0.005345,-0.032960
1198.000000,-0.001735,0.007223,0.003705,0.004667,0.012270
1199.000000,-0.000697,0.003734,0.004661,0.005013,-0.001744
1200.000000,-0.000348,0.001227,0.005036,0.005071,0.001744
1201.000000,-0.002058,0.001739,0.004132,0.005485,0.010399
1202.000000,0.004189,0.000346,0.002934,0.004361,-0.001726
1203.000000,0.000696,-0.000519,0.001587,0.004451,-0.005195
1204.000000,0.000349,-0.000174,0.001864,0.003680,-0.003478
1205.000000,-0.005654,-0.003001,0.000270,0.003592,-0.028270
1206.000000,-0.013552,-0.007805,-0.000276,0.001510,-0.029093
1207.000000,-0.014317,-0.005064,0.000279,0.000561,-0.005550
1208.000000,-0.014022,-0.006663,0.000280,0.000249,-0.003717
1209.000000,-0.015197,-0.007424,-0.001845,0.000633,-0.009355
1210.000000,-0.016038,-0.010846,-0.004810,-0.000258,-0.032477
1211.000000,-0.009445,-0.011499,-0.004880,-0.001078,0.003876
1212.000000,-0.014622,-0.014470,-0.007062,-0.002867,-0.031437
1213.000000,-0.013082,-0.013552,-0.007036,-0.003459,0.003984
1214.000000,-0.006495,-0.010846,-0.005510,-0.002373,0.023577
1215.000000,0.001932,-0.007053,-0.005027,-0.002171,0.009662
1216.000000,0.001541,-0.003952,-0.005878,-0.001501,0.001921
1217.000000,0.014622,0.000000,-0.002532,0.000186,0.033966
1218.000000,0.011961,-0.000560,-0.003612,0.000000,-0.009320
1219.000000,0.006119,-0.000188,-0.003806,-0.001293,-0.005634
1220.000000,0.002674,0.002303,-0.004271,-0.002439,-0.007561
1221.000000,0.004929,0.003235,-0.004132,-0.002175,0.013195
1222.000000,-0.007948,0.003337,-0.005566,-0.003596,-0.030421
1223.000000,-0.009590,0.001186,-0.006183,-0.004295,-0.017527
1224.000000,-0.011631,-0.002756,-0.006801,-0.004592,-0.015842
1225.000000,-0.023746,-0.010536,-0.008795,-0.006863,-0.068138
1226.000000,-0.031142,-0.013107,-0.008529,-0.008288,-0.023785
1227.000000,-0.029036,-0.018492,-0.009246,-0.007852,-0.019890
1228.000000,-0.021116,-0.015353,-0.007956,-0.007525,0.022076
1229.000000,-0.021472,-0.016551,-0.008370,-0.008055,-0.017622
1230.000000,-0.004757,-0.014252,-0.005974,-0.007598,0.015436
1231.000000,-0.001317,-0.016230,-0.006497,-0.008164,-0.006586
1232.000000,0.007018,-0.011009,-0.003836,-0.007381,0.021787
1233.000000,0.001306,-0.009905,-0.004360,-0.007424,-0.006487
1234.000000,-0.000445,-0.010958,-0.006857,-0.008187,-0.026375
1235.000000,-0.002643,-0.003700,-0.007118,-0.007096,0.004444
1236.000000,0.000000,-0.000659,-0.006883,-0.005906,0.006630
1237.000000,0.006780,0.006899,-0.005796,-0.003864,0.055689
1238.000000,0.013422,0.007364,-0.003994,-0.002850,0.026723
1239.000000,0.023507,0.011531,-0.002510,-0.001736,0.024049
1240.000000,0.020628,0.008992,-0.002630,-0.000985,-0.009950
1241.000000,0.014853,0.007427,-0.004402,-0.001856,-0.022246
1242.000000,0.009758,0.008269,-0.001370,0.000199,0.030214
1243.000000,0.008732,0.011077,0.000586,0.000786,0.021591
