0.000000,0.005846,0.002881,0.001948,0.001398,0.003889
1.000000,0.007599,0.003174,0.002447,0.001829,0.013595
2.000000,0.007708,0.002074,0.001569,0.001560,-0.008500
3.000000,0.016099,0.007966,0.004046,0.002753,0.049951
4.000000,0.009688,0.006436,0.003437,0.002284,-0.010496
5.000000,0.007734,0.006790,0.003185,0.002425,-0.005879
6.000000,0.005643,0.006621,0.003520,0.002340,0.003140
7.000000,0.008086,0.007897,0.004097,0.002331,0.003716
8.000000,-0.000658,0.007720,0.004705,0.002608,0.006227
9.000000,0.001518,0.005603,0.004237,0.003129,0.000388
10.000000,0.004509,0.006121,0.004501,0.003339,0.009073
11.000000,0.004992,0.005318,0.004246,0.003404,0.005557
12.000000,0.003061,0.005573,0.003824,0.002904,-0.005942
13.000000,0.001006,0.000174,0.004070,0.002755,-0.004045
14.000000,0.002045,0.001782,0.004109,0.002885,0.005582
15.000000,-0.000038,0.002235,0.004512,0.002868,-0.001344
16.000000,-0.004992,0.000000,0.003311,0.002347,-0.019211
17.000000,-0.000385,0.001338,0.004617,0.003177,0.017094
18.000000,0.000193,0.000600,0.004160,0.003337,-0.001156
19.000000,-0.002200,-0.000078,0.002763,0.002799,-0.006384
20.000000,0.000767,0.000364,0.003243,0.003122,0.013493
21.000000,0.004533,-0.000230,0.002544,0.002754,-0.000383
22.000000,0.002412,0.001014,0.003294,0.002887,0.006491
23.000000,0.004009,0.002101,0.001137,0.003413,0.006827
24.000000,0.005134,0.001467,0.001624,0.003228,-0.000756
25.000000,0.001069,0.000918,0.001577,0.003314,-0.006832
26.000000,0.000841,0.002687,0.001343,0.003103,-0.001525
27.000000,0.000608,0.001510,0.001424,0.003582,0.005326
28.000000,0.000980,0.002495,0.001547,0.003605,0.008689
29.000000,0.000755,0.002945,0.001434,0.002823,-0.001883
30.000000,0.002272,0.001671,0.001018,0.002719,0.000753
31.000000,0.004973,0.002907,0.001339,0.002665,0.011978
32.000000,-0.001677,-0.000534,0.000240,0.002018,-0.027921
33.000000,-0.003567,-0.001294,0.000404,0.000327,-0.000766
34.000000,-0.000944,-0.000095,0.000686,0.001051,0.011233
35.000000,-0.003840,-0.000784,0.000067,0.000790,-0.013725
36.000000,-0.004859,0.000057,0.001372,0.000915,0.006886
37.000000,0.004278,0.001301,0.001405,0.001383,0.017760
38.000000,0.006443,0.001438,0.001966,0.001511,0.010062
39.000000,0.002446,0.000751,0.001848,0.001206,-0.008752
40.000000,0.004929,0.000545,0.001108,0.000860,-0.001310
41.000000,0.005044,0.000093,0.001500,0.000923,0.007463
42.000000,0.003637,0.003957,0.001712,0.001479,0.010723
43.000000,0.002176,0.004309,0.001508,0.001706,0.002755
44.000000,0.006550,0.004498,0.002202,0.001957,0.013117
45.000000,0.007173,0.006051,0.002634,0.002062,0.001808
46.000000,0.005717,0.005381,0.002719,0.002708,0.000181
47.000000,0.003464,0.003550,0.002426,0.002120,-0.000542
48.000000,0.003454,0.002815,0.002126,0.002249,0.002707
49.000000,0.001622,0.004086,0.002418,0.002594,0.003958
50.000000,0.000757,0.003965,0.002255,0.002060,-0.002517
51.000000,0.001619,0.003668,0.001880,0.002223,0.004490
52.000000,0.004715,0.004090,0.004023,0.002504,0.014939
53.000000,0.002792,0.003123,0.003716,0.002046,-0.006908
54.000000,0.001930,0.001776,0.003137,0.002060,-0.000356
55.000000,0.001578,0.001168,0.003609,0.002145,-0.004277
56.000000,0.002988,0.002303,0.003842,0.002580,0.011540
57.000000,0.000670,0.002693,0.003121,0.002515,0.003348
58.000000,0.003838,0.003315,0.003065,0.002523,0.008933
59.000000,0.002579,0.002254,0.003170,0.002364,-0.006648
60.000000,0.004345,0.002961,0.003463,0.002490,0.004553
61.000000,-0.000035,0.001476,0.002572,0.001746,-0.010363
62.000000,-0.000599,0.000035,0.002062,0.002694,0.000530
63.000000,-0.004443,-0.000303,0.001410,0.002377,-0.010287
64.000000,-0.002047,0.000266,0.001021,0.002180,0.005334
65.000000,-0.002780,0.000783,0.000975,0.002667,0.000886
66.000000,0.002142,0.001054,0.001679,0.002913,0.014250
67.000000,0.002838,0.001120,0.001906,0.002454,0.004009
68.000000,0.002868,-0.000788,0.001264,0.001781,-0.010142
69.000000,-0.003579,-0.002813,-0.000279,0.001176,-0.026896
70.000000,-0.002066,-0.002423,0.000269,0.001501,0.008449
71.000000,-0.007983,-0.002920,-0.000722,0.000741,-0.015334
72.000000,-0.010391,-0.003776,-0.001870,0.000116,-0.008031
73.000000,-0.006502,-0.001817,-0.001060,0.000335,0.009302
74.000000,0.000253,-0.001663,-0.000698,0.000126,0.006875
75.000000,0.001071,-0.000497,0.000143,0.000484,0.012543
76.000000,0.005345,-0.001319,-0.000133,0.000679,0.006036
77.000000,0.005780,-0.002305,-0.000593,0.000502,-0.005858
78.000000,0.001122,-0.002690,-0.001739,-0.000054,-0.013984
79.000000,-0.000397,-0.000072,-0.001442,-0.000210,-0.000722
80.000000,-0.000214,0.000429,-0.000997,0.000322,0.013459
81.000000,-0.003680,0.000833,-0.001044,-0.000204,-0.011293
82.000000,-0.002040,0.001870,-0.000953,-0.000624,0.002341
83.000000,0.002155,0.001639,-0.000089,-0.000160,0.006990
84.000000,0.002585,0.001094,-0.000285,-0.000101,0.001428
85.000000,0.000143,-0.000036,-0.000266,0.000083,0.001248
86.000000,0.003538,-0.000071,-0.000695,-0.000112,0.005684
87.000000,0.001291,-0.000375,-0.001340,-0.000520,-0.008895
88.000000,0.001778,0.001966,-0.000362,-0.000504,0.009426
89.000000,-0.000321,0.001132,0.000530,-0.000584,-0.009069
90.000000,0.000569,0.000356,0.000392,-0.000546,0.005700
91.000000,0.000743,0.002140,0.001486,0.000018,0.006550
92.000000,0.002168,0.001730,0.001800,-0.000059,-0.001766
93.000000,0.002043,0.001911,0.001775,0.000577,0.008800
94.000000,0.003822,0.001750,0.001422,0.000394,-0.000175
95.000000,0.002436,0.001503,0.000734,0.000323,-0.001228
96.000000,-0.000212,0.000265,0.000097,-0.000375,-0.006690
97.000000,0.000424,0.001296,0.000461,-0.000461,0.001412
98.000000,-0.003001,-0.000479,0.000744,-0.000401,-0.008325
99.000000,-0.002079,0.000872,0.001002,0.000644,0.004437
100.000000,-0.002543,-0.000053,0.000151,0.000244,-0.003548
101.000000,0.002213,0.001001,0.001571,0.001325,0.017091
102.000000,0.000106,0.000265,0.000997,0.001288,-0.009126
103.000000,0.002229,-0.000386,0.000762,0.001054,0.002289
104.000000,0.000389,-0.000845,0.000453,0.000666,-0.004761
105.000000,-0.001749,-0.002146,-0.000322,-0.000226,-0.014240
106.000000,-0.003383,-0.000585,-0.000160,-0.000130,0.008924
107.000000,0.000985,0.000545,0.000921,0.000489,0.012712
108.000000,0.001193,0.001711,0.000616,0.001066,0.003328
109.000000,0.000952,0.000671,0.000771,0.000891,-0.005963
110.000000,0.000966,-0.000392,-0.000223,-0.000030,-0.014172
111.000000,0.003557,0.000087,0.000544,0.001076,0.021882
112.000000,0.000140,0.000563,0.000414,0.000852,-0.004373
113.000000,-0.000175,0.000509,0.000061,0.000678,0.001752
114.000000,0.001716,0.001334,0.000245,0.000747,0.003494
115.000000,0.001953,0.001459,-0.000343,0.000272,-0.012989
116.000000,-0.006998,-0.001720,-0.001153,-0.000680,-0.022874
117.000000,-0.007175,-0.003517,-0.001486,-0.000559,-0.005256
118.000000,-0.008253,-0.004214,-0.001252,-0.000994,-0.003641
119.000000,-0.008843,-0.003563,-0.001446,-0.000674,0.000547
120.000000,-0.005881,-0.001964,-0.001178,-0.000803,0.001821
121.000000,0.000325,-0.003337,-0.001625,-0.000749,0.008154
122.000000,0.000653,-0.003261,-0.001349,-0.000811,-0.003616
123.000000,0.004044,-0.002105,-0.000798,-0.000661,0.013314
124.000000,0.003398,-0.002722,-0.000694,-0.000744,-0.002685
125.000000,0.003320,-0.001280,0.000090,-0.000656,0.001433
126.000000,0.004320,0.002323,0.000301,0.000006,0.013156
127.000000,0.006030,0.003342,-0.000088,0.000123,0.004933
128.000000,0.006506,0.005275,0.000530,0.000924,0.015693
129.000000,0.008044,0.005721,0.001079,0.000943,0.005005
130.000000,0.011948,0.007634,0.002835,0.001759,0.020953
131.000000,0.010426,0.007373,0.002018,0.001375,0.005548
132.000000,0.009808,0.007919,0.002329,0.001740,0.001842
133.000000,0.005562,0.006034,0.001965,0.001479,-0.005537
134.000000,0.004393,0.006218,0.001748,0.001610,-0.000842
135.000000,0.001712,0.006830,0.002775,0.002336,0.007550
136.000000,-0.000235,0.005096,0.003709,0.001899,-0.004187
137.000000,-0.000402,0.004703,0.004022,0.001509,0.001007
138.000000,0.000471,0.003016,0.004146,0.001359,-0.001174
139.000000,-0.002304,0.001045,0.003383,0.001067,-0.014712
140.000000,-0.005044,-0.001666,0.002984,0.001335,-0.006152
141.000000,-0.005582,-0.002909,0.002232,0.000376,-0.006880
142.000000,-0.003894,-0.002148,0.002886,0.000837,0.009448
143.000000,-0.004001,-0.001765,0.002134,0.000721,-0.001711
144.000000,-0.001059,-0.001681,0.002269,0.000605,0.000000
145.000000,0.005311,0.000134,0.003482,0.001894,0.025699
146.000000,0.008581,0.001499,0.003298,0.002973,0.009469
147.000000,0.004998,0.000552,0.002627,0.002866,-0.008468
148.000000,0.003665,-0.000168,0.001424,0.002708,-0.008372
149.000000,0.003766,0.001354,0.001199,0.002706,0.000504
150.000000,0.001430,0.003371,0.000852,0.003113,0.014019
151.000000,-0.001194,0.003693,0.000392,0.002719,-0.003653
152.000000,0.000832,0.002915,0.000383,0.002895,0.001662
153.000000,0.002938,0.003302,0.000768,0.002523,0.002156
154.000000,0.002704,0.003235,0.000777,0.002591,-0.000663
155.000000,-0.003815,-0.001192,-0.000529,0.001924,-0.018576
156.000000,-0.002780,-0.001987,-0.000244,0.001536,0.001519
157.000000,-0.003282,-0.001225,-0.000336,0.001343,-0.000844
158.000000,-0.003375,-0.000219,-0.000193,0.000876,0.001687
159.000000,-0.004731,-0.001014,0.000170,0.000462,-0.007443
160.000000,0.001313,-0.001251,0.001060,0.000151,0.011647
161.000000,0.001847,-0.000467,0.001613,0.000106,0.004187
162.000000,0.002783,-0.000249,0.001333,0.000172,0.003836
163.000000,-0.001998,-0.002687,0.000307,-0.000384,-0.022219
164.000000,-0.000306,-0.002519,0.000358,-0.000322,0.001021
165.000000,-0.001279,0.000017,-0.000588,-0.000347,0.006779
166.000000,-0.003472,-0.000813,-0.001400,-0.000434,-0.006779
167.000000,-0.005742,-0.001479,-0.001352,-0.000717,-0.007510
168.000000,-0.000443,-0.001221,-0.000720,-0.000536,0.004274
169.000000,-0.001091,-0.000699,-0.000856,-0.000119,-0.002220
170.000000,-0.002379,-0.001829,-0.001540,0.000097,0.000342
171.000000,0.001153,-0.001160,-0.000813,0.000689,0.010879
172.000000,0.003801,-0.000970,-0.000610,0.000565,0.005732
173.000000,0.003014,0.001285,-0.000701,0.000633,0.000336
174.000000,0.002244,0.000576,-0.000971,0.000431,-0.006068
175.000000,0.001702,-0.000338,-0.000161,-0.000505,-0.002370
176.000000,0.003917,0.002535,0.000861,-0.000088,0.021957
177.000000,0.000067,0.001934,0.000227,-0.000257,-0.013519
178.000000,0.002372,0.002693,0.000736,0.000418,0.011860
179.000000,0.003220,0.002732,0.001017,0.000340,-0.001828
180.000000,0.004126,0.002914,0.000542,-0.000055,0.002160
181.000000,0.000265,0.002091,0.000466,0.000155,0.002653
182.000000,0.003002,0.001535,0.000282,0.000105,0.000166
183.000000,0.000133,0.001252,0.001269,-0.000050,-0.002486
184.000000,0.001525,0.002372,0.001474,0.000143,0.005131
185.000000,-0.001968,0.001079,0.000370,0.000252,-0.015306
186.000000,-0.000896,-0.000315,0.001110,0.000469,0.008015
187.000000,0.002239,0.002620,0.002277,0.001025,0.015839
188.000000,0.000066,0.000100,0.001396,0.000524,-0.013348
189.000000,-0.002793,-0.000634,0.001049,0.000466,-0.009166
190.000000,0.001603,-0.000183,0.001366,0.000301,0.006674
191.000000,0.000432,-0.000232,0.000930,0.000233,0.002160
192.000000,-0.003268,-0.000514,0.000510,0.000017,-0.002659
193.000000,-0.001699,-0.000816,0.000218,0.000574,-0.005506
194.000000,0.003978,0.000593,0.001482,0.001180,0.019222
195.000000,0.004343,0.002973,0.002026,0.001238,0.008498
196.000000,0.005435,0.002933,0.001309,0.001718,0.007619
197.000000,0.003758,0.000245,0.001433,0.001600,-0.011043
198.000000,0.006194,0.002247,0.001173,0.001680,0.006673
199.000000,0.005887,0.004932,0.002149,0.002343,0.017685
200.000000,0.005584,0.004964,0.002390,0.002565,0.006987
201.000000,0.005197,0.005316,0.002542,0.002392,0.005681
202.000000,0.009565,0.006662,0.003074,0.002561,0.010799
203.000000,0.005440,0.005817,0.002500,0.002084,-0.013951
204.000000,0.002565,0.004226,0.002409,0.002397,0.003309
205.000000,0.003420,0.004502,0.003738,0.002851,0.011264
206.000000,0.001942,0.003569,0.003251,0.002062,-0.001713
207.000000,-0.000717,0.004424,0.002335,0.002430,-0.002496
208.000000,0.000662,0.003051,0.002649,0.001799,-0.007055
209.000000,0.001879,0.002222,0.003577,0.002173,0.009396
210.000000,-0.001217,0.001102,0.003033,0.001961,-0.004217
211.000000,-0.000281,0.000831,0.003073,0.001971,0.002969
212.000000,-0.000720,-0.000719,0.002971,0.001810,-0.004693
213.000000,0.002533,0.001597,0.003707,0.002199,0.009208
214.000000,-0.002352,-0.000236,0.001995,0.001527,-0.015026
215.000000,0.001124,-0.000047,0.002228,0.002476,0.013160
216.000000,0.001988,0.000853,0.002211,0.002452,0.007289
217.000000,0.001935,0.000607,0.002516,0.001759,-0.004957
218.000000,0.002225,0.002379,0.002715,0.002559,0.010657
219.000000,0.004707,0.001178,0.001700,0.002777,-0.002615
220.000000,0.002136,0.001630,0.001366,0.002565,0.000308
221.000000,0.000185,0.001086,0.000958,0.002411,-0.002467
222.000000,-0.000031,0.000952,0.000117,0.002298,-0.006039
223.000000,-0.003722,-0.000748,0.000424,0.002222,-0.007795
224.000000,-0.002542,0.001082,0.000423,0.001691,0.003282
225.000000,-0.002292,-0.000078,-0.000062,0.001459,0.001559
226.000000,-0.001674,-0.000744,0.000055,0.001226,0.000623
227.000000,-0.000062,-0.000047,0.000280,0.001662,0.002022
228.000000,0.003291,-0.000215,0.001082,0.001738,0.008970
229.000000,0.002542,0.000000,0.000589,0.001133,-0.000462
230.000000,0.002384,0.000046,0.000838,0.000926,0.000770
231.000000,-0.000093,-0.000884,0.000101,0.000344,-0.011767
232.000000,-0.001748,-0.000905,0.000024,-0.000224,-0.006249
233.000000,-0.002697,0.000297,-0.000226,0.000382,0.004222
234.000000,-0.000710,0.000916,0.000999,0.000587,0.009474
235.000000,-0.001173,0.000606,0.000264,0.000160,-0.001547
236.000000,0.000218,0.000062,-0.000341,0.000057,-0.004811
237.000000,-0.001889,-0.001819,-0.000933,-0.000419,-0.016786
238.000000,-0.002134,-0.002415,-0.001315,-0.000084,0.003001
239.000000,-0.003084,-0.001897,-0.000949,-0.000240,0.004721
240.000000,-0.000682,-0.000928,-0.000441,0.000249,0.010463
241.000000,0.000590,0.000404,-0.000240,0.000202,0.001552
242.000000,0.005831,0.001971,0.000533,0.000673,0.009417
243.000000,0.004307,0.001086,0.000692,0.000212,-0.004620
244.000000,0.005145,0.001030,0.000973,0.001010,0.008914
245.000000,0.004546,0.001932,0.001269,0.000820,0.007469
246.000000,0.005869,0.003230,0.001646,0.000849,0.008167
247.000000,0.005187,0.005509,0.001845,0.001215,0.006007
248.000000,0.005902,0.005104,0.001344,0.000824,-0.001049
249.000000,0.006532,0.005839,0.001971,0.001314,0.012067
250.000000,0.005866,0.005206,0.002139,0.001442,0.004138
251.000000,0.002217,0.004043,0.002224,0.001188,-0.010079
252.000000,0.000180,0.002683,0.002327,0.001250,-0.004180
253.000000,-0.000661,0.002621,0.001853,0.001335,-0.005249
254.000000,-0.002144,0.002194,0.001612,0.001380,0.004651
255.000000,0.001176,0.003521,0.002727,0.002020,0.020738
256.000000,0.001839,0.002028,0.002629,0.001773,-0.006767
257.000000,0.003558,0.001869,0.003689,0.001853,0.004418
258.000000,0.001886,0.000613,0.002858,0.001100,-0.013612
259.000000,0.004265,0.001061,0.003450,0.001667,0.016546
260.000000,-0.000617,0.000280,0.002743,0.001519,-0.003670
261.000000,0.000737,0.001288,0.002665,0.001912,0.000000
262.000000,-0.002395,0.000582,0.001633,0.001745,-0.011239
263.000000,0.000119,0.001002,0.001811,0.001570,-0.001042
264.000000,-0.003727,0.000269,0.001232,0.001165,-0.002683
265.000000,-0.005064,-0.002840,0.000341,0.000871,-0.010353
266.000000,-0.010631,-0.004947,-0.001460,0.000104,-0.027835
267.000000,-0.011761,-0.007078,-0.002604,0.000100,-0.016891
268.000000,-0.010703,-0.005292,-0.002340,0.000142,0.004250
269.000000,-0.011142,-0.007434,-0.003187,-0.000178,-0.004881
270.000000,-0.006406,-0.005735,-0.002728,-0.000083,0.013326
271.000000,-0.002120,-0.006375,-0.002544,-0.000348,-0.006406
272.000000,-0.006346,-0.009053,-0.004236,-0.001929,-0.038018
273.000000,-0.004897,-0.007800,-0.003399,-0.001392,0.011493
274.000000,-0.003374,-0.007258,-0.003495,-0.001598,0.002732
275.000000,-0.005398,-0.005902,-0.004371,-0.001740,0.003205
276.000000,-0.000974,-0.001547,-0.003247,-0.001489,0.015716
277.000000,0.006377,0.000016,-0.003531,-0.001731,-0.001261
278.000000,0.005399,0.000251,-0.002520,-0.001476,0.006602
279.000000,0.005197,0.000911,-0.003262,-0.001821,0.001722
280.000000,0.006052,0.000327,-0.002704,-0.001710,0.007479
281.000000,0.003992,0.001509,-0.002433,-0.001193,0.005418
282.000000,0.004892,0.005634,-0.001709,-0.000946,0.003237
283.000000,0.002150,0.003775,-0.002013,-0.001008,-0.007104
284.000000,0.002826,0.004012,-0.001623,-0.000993,0.005102
285.000000,0.000682,0.003367,-0.001268,-0.001792,-0.003243
286.000000,-0.001239,0.001377,-0.000085,-0.001706,-0.004186
287.000000,-0.001173,0.001859,0.000938,-0.001734,0.003567
288.000000,0.001298,0.001724,0.000988,-0.001106,0.005249
289.000000,0.002025,0.002426,0.001669,-0.001366,0.008739
290.000000,0.004679,0.002680,0.001503,-0.000909,0.010024
291.000000,0.002961,0.000861,0.001185,-0.001335,-0.012776
292.000000,0.003529,0.001178,0.003406,-0.000747,0.006408
293.000000,0.003026,0.002162,0.002968,-0.000621,0.002734
294.000000,0.000731,0.001378,0.002695,-0.000623,-0.002734
295.000000,-0.001334,0.001672,0.002519,-0.000288,-0.000304
296.000000,0.000703,0.001832,0.001604,0.000554,-0.002590
297.000000,-0.002110,0.000710,0.001284,0.000862,-0.007656
298.000000,-0.002718,0.000154,0.000939,0.000710,-0.000307
299.000000,-0.004927,-0.002098,0.000164,0.000413,-0.013778
300.000000,-0.003747,-0.002541,0.000070,0.000155,0.005596
301.000000,-0.001839,-0.000568,0.000146,0.000601,0.006951
302.000000,0.001256,-0.000427,0.000376,0.002129,0.007820
303.000000,-0.000554,-0.001636,0.000263,0.001433,-0.009361
304.000000,0.001584,-0.001672,-0.000147,0.001239,-0.003088
305.000000,0.000743,-0.001502,0.000085,0.001179,0.001391
306.000000,-0.002385,-0.002112,-0.000140,0.000366,-0.008686
307.000000,-0.004042,-0.001393,-0.000342,0.000392,-0.000467
308.000000,-0.004018,-0.002286,-0.001066,-0.000136,-0.009238
309.000000,-0.003023,-0.000720,-0.001409,-0.000131,0.001886
310.000000,-0.001488,-0.000373,-0.001457,-0.000078,0.009065
311.000000,0.005864,0.001740,0.000586,0.000678,0.028076
312.000000,0.008812,0.002385,0.000979,0.001045,0.014270
313.000000,0.010928,0.003455,0.000909,0.001327,0.001341
314.000000,0.009175,0.003076,0.000702,0.000928,-0.006875
315.000000,0.005434,0.001973,0.000235,0.000714,-0.009644
316.000000,-0.002068,0.001898,-0.000107,0.000539,-0.009433
317.000000,-0.003612,0.002600,0.000603,0.000639,0.006551
318.000000,-0.002699,0.004114,0.000914,0.000661,0.005905
319.000000,-0.002931,0.003122,0.001201,0.000102,-0.008033
320.000000,-0.004038,0.000698,0.000163,-0.000739,-0.015181
321.000000,-0.000704,-0.001386,0.000177,-0.000072,0.007236
322.000000,0.000546,-0.001533,0.000426,0.000142,0.012803
323.000000,0.000483,-0.001108,0.001173,0.000237,0.005588
324.000000,0.002601,-0.000165,0.001456,0.000413,0.002557
325.000000,0.007163,0.001563,0.001768,0.000678,0.007632
326.000000,0.007320,0.003308,0.002603,0.001031,0.008018
327.000000,0.003513,0.002029,0.002315,0.001079,-0.006231
328.000000,0.002871,0.001677,0.002895,0.001168,0.002378
329.000000,0.001705,0.002153,0.002638,0.001519,-0.003271
330.000000,-0.000537,0.003313,0.002005,0.001213,-0.003581
331.000000,-0.001484,0.002918,0.000766,0.001090,0.003283
332.000000,0.000654,0.002083,0.000275,0.000978,0.004460
333.000000,-0.000505,0.001183,0.000037,0.001176,-0.003417
334.000000,-0.001375,0.000165,0.000000,0.001025,-0.007619
335.000000,-0.000479,-0.000508,0.000527,0.001009,0.000899
336.000000,-0.002247,-0.001866,0.000721,0.001113,-0.005559
337.000000,-0.002808,-0.001077,0.000476,0.001184,0.001656
338.000000,-0.001464,-0.000985,0.000346,0.001602,0.003304
339.000000,-0.000270,-0.000823,0.000665,0.001484,-0.001651
340.000000,0.002265,0.000893,0.002103,0.001634,0.013573
341.000000,0.001860,-0.000194,0.001362,0.000446,-0.007584
342.000000,0.000900,-0.000954,0.000565,-0.000134,-0.003140
343.000000,-0.002171,-0.001817,-0.000317,-0.000581,-0.012052
344.000000,-0.001356,-0.000813,-0.000324,-0.000271,0.002422
345.000000,-0.002595,-0.000165,-0.000337,0.000296,0.007381
346.000000,-0.003554,-0.000847,-0.001357,0.000198,-0.012383
347.000000,-0.002289,-0.000694,-0.000886,0.000086,0.003186
348.000000,-0.000182,-0.001176,-0.001080,-0.000161,-0.001516
349.000000,-0.000454,-0.000905,-0.000864,0.000142,0.001061
350.000000,-0.002052,-0.002323,-0.000715,0.000628,-0.000606
351.000000,0.000455,-0.001549,-0.000872,0.000391,0.000152
352.000000,0.001057,-0.000616,-0.000785,0.000171,0.006197
353.000000,0.002023,0.000920,-0.000449,0.000095,0.003309
354.000000,0.001540,0.000543,-0.000135,-0.000035,-0.001352
355.000000,0.000817,-0.000617,-0.000391,-0.000430,-0.004219
356.000000,0.000636,0.000546,-0.000151,-0.000723,-0.000755
357.000000,0.000482,0.000770,0.000038,-0.000334,0.005426
358.000000,0.001556,0.001789,0.000306,-0.000124,0.008680
359.000000,0.002184,0.001862,0.000478,0.000045,0.001787
360.000000,0.002730,0.001773,-0.000275,0.000114,-0.001489
361.000000,0.001295,0.000966,-0.000292,-0.000259,-0.007926
362.000000,-0.001297,-0.000408,-0.000512,-0.000659,-0.007536
363.000000,-0.002097,-0.000271,0.000325,-0.000389,0.004679
364.000000,-0.004787,-0.001302,-0.000379,-0.000524,-0.011662
365.000000,-0.002398,0.000166,-0.000226,-0.000205,0.010457
366.000000,-0.001598,-0.000151,0.000197,-0.000151,-0.003927
367.000000,0.001747,0.000225,0.000497,0.000100,0.009190
368.000000,0.000661,-0.000718,0.000536,-0.000035,-0.000750
369.000000,0.002272,-0.001257,0.000302,-0.000100,-0.003608
370.000000,-0.000998,-0.001698,0.000038,-0.000749,-0.005892
371.000000,0.000966,-0.000316,0.000325,-0.000300,0.005892
372.000000,-0.001113,0.000317,-0.000045,-0.000235,-0.001206
373.000000,0.001137,0.000899,0.000314,0.000516,0.010501
374.000000,0.001859,0.002066,0.000382,0.000436,0.000000
375.000000,0.004524,0.001763,0.000965,0.000437,0.007434
376.000000,0.001052,0.001009,0.000429,0.000468,-0.011471
377.000000,0.001981,0.000434,0.000330,0.000476,0.003440
378.000000,-0.001769,-0.000316,-0.000517,0.000252,-0.008247
379.000000,-0.002311,-0.000226,-0.000742,0.000126,-0.002714
380.000000,-0.003557,0.000484,-0.000607,0.000186,0.001207
381.000000,-0.001444,-0.000196,-0.000256,0.000151,-0.000905
382.000000,-0.001860,0.000060,0.000189,-0.000010,0.001357
383.000000,0.000361,-0.000704,0.000098,-0.000025,0.002860
384.000000,0.001744,-0.000284,0.000891,0.000160,0.004199
385.000000,0.000090,-0.001733,0.000015,0.000065,-0.007059
386.000000,-0.003748,-0.002596,-0.000793,-0.000579,-0.020095
387.000000,-0.000906,-0.001383,-0.000475,-0.000241,0.015563
388.000000,-0.003456,-0.001548,-0.000932,-0.000860,-0.009890
389.000000,-0.009469,-0.003863,-0.002045,-0.001782,-0.025867
390.000000,-0.008246,-0.004078,-0.001797,-0.001764,-0.000942
391.000000,-0.003850,-0.003799,-0.001998,-0.001437,0.001883
392.000000,-0.007874,-0.004390,-0.002165,-0.001338,-0.004557
393.000000,-0.007763,-0.005610,-0.003157,-0.001805,-0.009335
394.000000,-0.003482,-0.006476,-0.003380,-0.001565,-0.004461
395.000000,-0.004961,-0.006604,-0.004168,-0.002191,-0.008337
396.000000,-0.008617,-0.006234,-0.004415,-0.002607,-0.016395
397.000000,-0.007607,-0.007741,-0.004562,-0.002897,0.000491
398.000000,-0.004924,-0.006344,-0.003946,-0.002736,0.004081
399.000000,-0.005372,-0.004427,-0.004145,-0.002839,-0.006702
400.000000,-0.001909,-0.003435,-0.003756,-0.002343,0.008980
401.000000,0.001565,-0.003526,-0.003662,-0.002507,0.000975
402.000000,0.003984,-0.001812,-0.003101,-0.002047,0.012587
403.000000,0.002526,-0.001199,-0.003405,-0.002504,-0.003212
404.000000,0.004476,-0.000448,-0.003462,-0.002403,0.003052
405.000000,0.005103,0.001597,-0.002503,-0.002247,0.012116
406.000000,0.005003,0.003284,-0.001475,-0.001848,0.000475
407.000000,0.002992,0.003488,-0.002126,-0.001879,0.002531
408.000000,0.004832,0.003679,-0.001333,-0.001404,0.005985
409.000000,0.005630,0.005053,0.000313,-0.001079,0.007042
410.000000,0.002018,0.003561,0.000063,-0.001317,-0.005943
411.000000,0.002487,0.003745,0.000110,-0.001193,0.002820
412.000000,0.001009,0.002000,0.000094,-0.001401,-0.004861
413.000000,0.000126,0.002479,0.000640,-0.001443,0.001571
414.000000,-0.000531,0.002549,0.001051,-0.001458,0.003759
415.000000,0.000783,0.001400,0.001499,-0.001202,0.000625
416.000000,0.000281,0.001384,0.002334,-0.000522,0.000312
417.000000,0.001659,0.001334,0.002411,-0.000973,0.002029
418.000000,0.002557,0.001341,0.002510,-0.000441,0.006061
419.000000,0.000656,0.000062,0.002558,0.000229,-0.005749
420.000000,0.002299,0.001541,0.002551,0.000556,0.008843
421.000000,0.003653,0.001967,0.002856,0.000729,0.007080
422.000000,0.001738,0.001699,0.001850,0.000629,-0.007544
423.000000,-0.002056,0.000251,0.001365,0.000510,-0.012909
424.000000,-0.001973,-0.000659,0.000945,0.000481,-0.005337
425.000000,-0.002957,-0.000329,0.000536,0.000890,0.003927
426.000000,-0.007820,-0.002083,-0.000350,0.000862,-0.017235
427.000000,-0.006120,-0.002191,-0.000428,0.000877,0.000956
428.000000,-0.004080,-0.003068,-0.000863,0.000651,-0.002712
429.000000,-0.006559,-0.004266,-0.002102,0.000283,-0.017731
430.000000,-0.006987,-0.004972,-0.001715,0.000043,0.001787
431.000000,-0.004974,-0.006397,-0.002215,-0.000228,-0.007168
432.000000,-0.005034,-0.005577,-0.001939,-0.000626,0.000654
433.000000,-0.005343,-0.004712,-0.002230,-0.000661,-0.004257
434.000000,-0.001600,-0.004080,-0.002369,-0.000730,0.000984
435.000000,-0.002483,-0.004735,-0.002532,-0.001221,-0.002626
436.000000,0.000718,-0.002128,-0.002106,-0.000942,0.008837
437.000000,0.001789,-0.001622,-0.001907,-0.000826,0.006010
438.000000,-0.000789,-0.003066,-0.003067,-0.001598,-0.017150
439.000000,-0.005788,-0.003694,-0.003980,-0.002633,-0.024009
440.000000,-0.005026,-0.003755,-0.004363,-0.002395,0.001181
441.000000,-0.004182,-0.001732,-0.004064,-0.002054,0.013061
442.000000,-0.004985,-0.001598,-0.003587,-0.001825,0.001994
443.000000,-0.005851,-0.003320,-0.004016,-0.002594,-0.021481
444.000000,0.002215,-0.001786,-0.002933,-0.002175,0.016321
445.000000,-0.002613,-0.003820,-0.004277,-0.002961,-0.022958
446.000000,-0.008878,-0.006530,-0.004329,-0.003580,-0.018267
447.000000,-0.013922,-0.009453,-0.005538,-0.004422,-0.023224
448.000000,-0.008880,-0.007365,-0.005216,-0.004500,0.003731
449.000000,-0.011259,-0.004522,-0.004108,-0.004161,0.004424
450.000000,-0.003132,-0.002872,-0.003314,-0.003866,0.017675
451.000000,0.004131,-0.002374,-0.002053,-0.003501,0.018049
452.000000,0.013290,-0.000316,-0.000957,-0.002497,0.022571
453.000000,0.016534,0.003827,0.000254,-0.001401,0.019953
454.000000,0.013483,0.001112,-0.000337,-0.001585,-0.010834
455.000000,0.013838,0.005353,0.000767,-0.001067,0.019450
456.000000,0.010681,0.007406,0.000438,-0.000417,0.002264
457.000000,0.001096,0.007193,-0.001130,-0.001294,-0.025351
458.000000,0.000000,0.008267,0.000451,-0.000721,0.014472
459.000000,0.001447,0.007465,0.001472,-0.000250,-0.003598
460.000000,-0.000227,0.006806,0.001967,0.000059,0.011080
461.000000,0.001031,0.005856,0.001741,0.000583,0.008552
462.000000,0.004456,0.002776,0.001230,0.000287,-0.008228
463.000000,0.003432,0.001716,0.002772,0.000741,0.009352
464.000000,0.008375,0.004911,0.003012,0.001412,0.021120
465.000000,0.006661,0.003217,0.004285,0.001584,0.002511
466.000000,0.007969,0.004500,0.005953,0.001792,0.015089
467.000000,0.012009,0.008232,0.007713,0.001991,0.011971
468.000000,0.009251,0.006342,0.007304,0.002415,-0.004434
469.000000,0.004751,0.006563,0.007014,0.003169,-0.001380
470.000000,0.003573,0.005117,0.005961,0.003017,-0.003381
471.000000,0.000185,0.004077,0.004966,0.002520,-0.001849
472.000000,-0.000214,0.005897,0.004337,0.002786,0.009976
473.000000,-0.000829,0.004211,0.002963,0.003251,-0.007511
474.000000,-0.001046,0.001853,0.003382,0.002625,-0.002465
475.000000,-0.000617,0.001478,0.002348,0.003349,-0.001235
476.000000,0.000831,0.000508,0.002504,0.004138,0.005391
477.000000,-0.000428,-0.000321,0.003956,0.005035,0.003680
478.000000,0.000860,0.000015,0.003178,0.004875,-0.001072
479.000000,0.001414,0.000184,0.003374,0.004737,0.000306
480.000000,0.001538,0.000461,0.002789,0.004128,-0.000613
481.000000,0.000000,0.000416,0.002246,0.003449,-0.002301
482.000000,0.000031,-0.000199,0.002849,0.002825,0.003833
483.000000,0.003523,0.002192,0.003201,0.002706,0.016391
484.000000,0.003883,0.002649,0.002251,0.003137,0.002105
485.000000,0.003072,0.002305,0.001892,0.002334,-0.004668
486.000000,0.002382,0.001191,0.000850,0.002066,-0.005751
487.000000,0.002766,0.001398,0.000539,0.003103,0.005751
488.000000,-0.003156,0.000184,0.000100,0.002180,-0.013217
489.000000,-0.002692,0.000596,0.000390,0.002448,0.004425
490.000000,-0.004951,-0.000939,-0.000239,0.001546,-0.015961
491.000000,-0.006228,-0.001923,-0.000754,0.000857,-0.012140
492.000000,-0.007504,-0.002369,-0.001284,0.001110,-0.000627
493.000000,-0.000398,-0.001777,0.000207,0.001542,0.022313
494.000000,0.002812,0.000060,0.001354,0.001520,0.020475
495.000000,0.007560,0.001304,0.001805,0.001696,0.007776
496.000000,0.009868,0.001820,0.001506,0.001173,-0.000596
497.000000,0.011034,0.001765,0.001582,0.000948,0.005203
498.000000,0.006927,0.003265,0.001724,0.001155,0.001778
499.000000,0.003718,0.003265,0.001930,0.001348,0.004431
500.000000,0.003690,0.005625,0.002343,0.001715,0.007634
501.000000,0.002988,0.006428,0.002253,0.001640,-0.004103
502.000000,-0.001787,0.004624,0.001127,0.000685,-0.018676
503.000000,-0.002712,0.002108,0.000165,0.000841,-0.002847
504.000000,-0.009846,-0.003064,-0.001502,-0.000118,-0.031241
505.000000,-0.013521,-0.004916,-0.001806,-0.000435,-0.010739
506.000000,-0.011546,-0.004279,-0.001229,-0.000423,0.005773
507.000000,-0.002196,-0.001992,-0.000113,0.000391,0.028071
508.000000,-0.003573,-0.003142,0.000061,0.000102,-0.009728
509.000000,0.002370,-0.003738,-0.000237,0.000041,-0.001529
510.000000,0.003905,-0.004808,0.000408,-0.000041,-0.003064
511.000000,0.000993,-0.005276,0.000576,-0.000257,-0.008785
512.000000,-0.007176,-0.004686,-0.000031,-0.000811,-0.012775
513.000000,-0.003078,-0.003326,-0.000609,-0.000998,0.010760
514.000000,-0.003581,-0.000606,-0.001835,-0.001203,-0.004041
515.000000,-0.002564,0.000671,-0.002122,-0.000980,0.002023
516.000000,0.000340,0.000667,-0.001806,-0.000597,0.005734
517.000000,-0.000063,-0.003619,-0.002806,-0.001282,-0.014790
518.000000,-0.002183,-0.002631,-0.002887,-0.000836,0.000157
519.000000,-0.004154,-0.003868,-0.003803,-0.001447,-0.013896
520.000000,-0.007119,-0.004841,-0.004825,-0.001342,-0.012802
521.000000,-0.005356,-0.002508,-0.003892,-0.000452,0.014550
522.000000,-0.002049,-0.001056,-0.002871,-0.000373,0.001745
523.000000,-0.000723,-0.001453,-0.002389,-0.000890,0.006790
524.000000,0.001836,-0.001159,-0.000882,-0.001610,-0.001102
525.000000,0.003607,-0.001756,-0.000543,-0.002000,-0.003947
526.000000,0.002555,-0.001401,-0.000367,-0.001671,0.009289
527.000000,0.003829,0.000890,-0.001365,-0.001574,0.008116
528.000000,0.000346,-0.000188,-0.001410,-0.001987,-0.010627
529.000000,0.000818,0.001327,-0.001270,-0.002093,0.001256
530.000000,0.001450,0.002529,-0.001156,-0.002374,-0.000785
531.000000,0.000813,0.001684,-0.000412,-0.002033,0.006106
532.000000,0.000714,0.002272,0.000608,-0.001157,0.007619
533.000000,0.004965,0.002656,0.000601,-0.000708,0.010631
534.000000,0.006484,0.003651,0.001246,0.000629,0.008850
535.000000,0.006671,0.004061,0.001152,0.000992,0.000152
536.000000,0.006450,0.003632,0.001116,0.000966,0.005000
537.000000,0.005228,0.002971,0.001931,0.000081,0.001510
538.000000,0.003193,0.004079,0.001945,0.000420,0.000453
539.000000,0.000061,0.003272,0.002300,0.000244,-0.006810
540.000000,0.001272,0.003972,0.003250,0.000553,0.006207
541.000000,-0.000909,0.002771,0.002227,0.000649,-0.005903
542.000000,0.000693,0.002961,0.002616,0.001392,0.009519
543.000000,-0.001241,0.000976,0.001816,0.000726,-0.009215
544.000000,-0.000700,-0.000320,0.001666,0.000724,-0.004106
545.000000,-0.003748,-0.001238,0.001411,0.000356,-0.009032
546.000000,-0.004918,-0.002913,0.000359,-0.000227,-0.011756
547.000000,-0.007102,-0.003205,-0.000117,0.000219,-0.001401
548.000000,-0.006604,-0.003922,0.000078,-0.000010,-0.006722
549.000000,-0.007010,-0.003855,-0.000291,0.000248,-0.006136
550.000000,-0.004573,-0.004160,-0.000094,0.000780,0.003152
551.000000,-0.003674,-0.004296,-0.000763,0.000053,-0.007264
552.000000,-0.001219,-0.004161,-0.000600,0.000357,0.010876
553.000000,-0.000440,-0.003522,-0.001273,0.000037,-0.002826
554.000000,0.001854,-0.002578,-0.001449,0.000251,0.005331
555.000000,0.000252,-0.002161,-0.001699,0.000221,-0.004859
556.000000,0.000412,-0.001631,-0.002272,-0.000304,-0.006463
557.000000,-0.001258,-0.001239,-0.002222,-0.000491,0.002527
558.000000,-0.000346,-0.000393,-0.002157,-0.000079,0.001734
559.000000,-0.003057,-0.000602,-0.002228,-0.000395,-0.008223
560.000000,-0.002085,-0.000917,-0.002538,-0.000368,0.000000
561.000000,-0.000158,0.000127,-0.002085,-0.000466,0.003171
562.000000,0.000976,-0.000141,-0.002151,-0.000447,0.008197
563.000000,0.000063,-0.000142,-0.001832,-0.000896,-0.002830
564.000000,0.002116,-0.000470,-0.001524,-0.001123,0.002045
565.000000,0.000539,-0.000773,-0.001467,-0.001390,-0.007886
566.000000,0.000632,0.000237,-0.000697,-0.001436,0.003636
567.000000,-0.001861,-0.000443,-0.000841,-0.001629,-0.004269
568.000000,-0.000315,-0.000126,-0.000259,-0.001480,0.004900
569.000000,-0.001008,0.000554,-0.000024,-0.001301,-0.001420
570.000000,0.001074,0.000807,-0.000055,-0.001423,0.002523
571.000000,0.000158,0.000395,0.000261,-0.001258,-0.000945
572.000000,0.000601,-0.000630,-0.000386,-0.001644,-0.002052
573.000000,-0.001329,-0.000822,-0.000482,-0.001495,-0.004751
574.000000,-0.001013,-0.001011,-0.000740,-0.001353,0.000159
575.000000,-0.002058,-0.000492,-0.000633,-0.001142,-0.002702
576.000000,-0.001965,-0.000903,-0.000333,-0.000766,-0.000478
577.000000,-0.001841,-0.000620,-0.000531,-0.000767,-0.001434
578.000000,-0.000381,-0.000855,-0.000491,-0.000458,0.002548
579.000000,-0.000222,-0.000618,-0.000032,-0.000222,0.000954
580.000000,0.001427,-0.000316,0.000246,-0.000142,0.005545
581.000000,-0.000064,-0.001014,-0.000310,-0.000164,-0.007932
582.000000,0.000191,-0.000825,-0.000727,-0.000532,-0.000159
583.000000,-0.001052,-0.000717,-0.000769,-0.000560,-0.003670
584.000000,-0.002784,-0.001503,-0.001257,-0.000995,-0.007703
585.000000,0.002387,0.001907,0.000708,0.000214,0.031401
586.000000,0.003692,0.001814,0.000455,0.000383,-0.001406
587.000000,0.000700,0.000445,-0.000087,-0.000206,-0.015123
588.000000,0.001751,0.000349,-0.000253,-0.000211,0.001586
589.000000,0.002974,0.000095,-0.000261,0.000011,-0.001586
590.000000,-0.002799,-0.000206,-0.000261,0.000095,0.002536
591.000000,-0.002834,0.000429,-0.000293,-0.000063,-0.001585
592.000000,0.001613,0.001156,0.000166,-0.000100,0.007111
593.000000,0.003861,0.002806,0.001045,0.000422,0.012829
594.000000,0.006896,0.004935,0.001716,0.000807,0.013587
595.000000,0.006358,0.001780,0.001843,0.001065,-0.000153
596.000000,0.008081,0.002623,0.002219,0.001178,0.007030
597.000000,0.007964,0.004788,0.002617,0.001538,0.006528
598.000000,0.003483,0.003672,0.002011,0.001055,-0.009578
599.000000,-0.000891,0.003002,0.001549,0.000827,-0.008284
600.000000,-0.002159,0.002099,0.000947,0.000526,-0.006491
601.000000,-0.005215,0.001433,0.000931,0.000283,-0.008251
602.000000,-0.004932,0.001516,0.001336,0.000616,0.007941
603.000000,-0.002986,0.000248,0.001527,0.000779,0.000155
604.000000,-0.003575,-0.002233,0.001351,0.000400,-0.011227
605.000000,-0.001869,-0.002014,-0.000117,0.000558,0.002037
606.000000,-0.000063,-0.002639,-0.000008,0.000600,0.000782
607.000000,-0.001057,-0.002995,0.000897,0.000746,0.002967
608.000000,-0.001776,-0.002381,0.000646,0.000547,-0.003436
609.000000,0.001593,-0.000991,0.001006,0.000702,0.005616
610.000000,-0.000470,-0.001170,0.000465,0.000241,-0.008279
611.000000,0.000625,0.000281,0.000857,0.000714,0.006255
612.000000,0.000312,-0.000373,0.000571,0.000766,0.001402
613.000000,0.002673,0.000449,0.000349,0.001168,0.008371
614.000000,0.000931,0.001262,-0.000485,0.001321,-0.003092
615.000000,0.001625,0.000577,-0.000718,0.000114,-0.004812
616.000000,0.002325,0.001475,-0.000582,0.000486,0.009755
617.000000,0.001767,0.001039,-0.000978,0.000944,-0.001388
618.000000,0.001507,0.002090,-0.000145,0.001127,0.007073
619.000000,0.002187,0.001559,0.000284,0.001190,0.000306
620.000000,0.003791,0.002708,0.000769,0.001213,0.003211
621.000000,0.000861,0.001593,0.000937,0.001102,-0.004897
622.000000,-0.001114,0.000326,-0.000023,0.000490,-0.011263
623.000000,-0.003057,-0.000775,-0.000163,-0.000026,-0.002641
624.000000,-0.002497,-0.000155,0.000554,-0.000375,0.003107
625.000000,-0.005448,-0.000828,-0.000125,-0.000755,-0.011543
626.000000,-0.004374,-0.001756,-0.000141,-0.000974,0.000471
627.000000,-0.001871,-0.001492,-0.000227,-0.001149,0.001254
628.000000,-0.001530,-0.002294,-0.000102,-0.000861,-0.000940
629.000000,-0.001995,-0.002246,-0.000343,-0.000559,0.000784
630.000000,0.001749,-0.001849,0.000430,-0.000104,0.007180
631.000000,-0.001038,-0.002706,-0.000556,-0.000277,-0.013465
632.000000,-0.001383,-0.001627,-0.000650,-0.000558,-0.000473
633.000000,-0.000345,-0.000938,-0.000856,-0.000421,0.004249
634.000000,0.001311,-0.000342,-0.000248,0.000255,0.009067
635.000000,-0.001123,0.000313,-0.000257,0.000021,-0.004992
636.000000,0.001570,0.000266,-0.000745,-0.000005,0.000000
637.000000,0.002788,0.000702,-0.000395,0.000083,0.005614
638.000000,0.000784,0.000219,-0.001037,0.000005,-0.005771
639.000000,-0.000936,0.000188,-0.001029,-0.000166,0.000469
640.000000,-0.002708,-0.001916,-0.001882,-0.000352,-0.013854
641.000000,-0.002962,-0.000696,-0.001701,-0.000603,-0.001269
642.000000,-0.005807,-0.001510,-0.001568,-0.000937,-0.008608
643.000000,-0.006939,-0.003078,-0.002008,-0.001597,-0.011432
644.000000,-0.008235,-0.004585,-0.002464,-0.001694,-0.006010
645.000000,-0.002488,-0.002598,-0.001143,-0.001038,0.014877
646.000000,0.010362,0.003700,0.001983,0.000737,0.062982
647.000000,0.015520,0.004857,0.002780,0.001356,0.017184
648.000000,0.018664,0.005863,0.003041,0.001263,0.004287
649.000000,0.018356,0.005061,0.002624,0.001001,-0.007552
650.000000,0.017303,0.007407,0.002746,0.001214,0.009615
651.000000,0.007281,0.008821,0.004063,0.001807,0.012871
652.000000,0.002561,0.009041,0.003766,0.001968,-0.006415
653.000000,0.002929,0.010796,0.003859,0.002260,0.006124
654.000000,0.007698,0.013027,0.004221,0.002700,0.016293
655.000000,0.003647,0.010475,0.003938,0.002730,-0.010640
656.000000,-0.000087,0.003597,0.003648,0.002521,-0.005799
657.000000,0.001921,0.002241,0.003549,0.002600,0.003628
658.000000,0.003116,0.003022,0.004442,0.003035,0.012095
659.000000,0.000486,0.004092,0.004576,0.003113,0.003144
660.000000,0.001870,0.002759,0.005083,0.002750,-0.003716
661.000000,0.000957,0.000435,0.004628,0.002853,-0.010364
662.000000,-0.002801,-0.000440,0.004301,0.002364,-0.015163
663.000000,-0.006576,-0.001730,0.004533,0.001996,-0.006781
664.000000,-0.011571,-0.005543,0.003742,0.000966,-0.021831
665.000000,-0.012681,-0.005405,0.002535,0.000824,-0.009264
666.000000,-0.007069,-0.003056,0.000271,0.001414,0.017694
667.000000,-0.001208,-0.002005,0.000118,0.001698,0.014140
668.000000,0.000296,-0.003140,-0.000059,0.001915,0.000739
669.000000,0.003625,-0.003973,0.000059,0.001726,-0.005183
670.000000,0.000792,-0.005944,-0.001593,0.001407,-0.023432
671.000000,-0.000691,-0.003880,-0.001722,0.001792,0.010281
672.000000,-0.000829,-0.001019,-0.000729,0.002527,0.013447
673.000000,-0.001304,-0.000504,-0.001117,0.002854,-0.001634
674.000000,0.001950,0.002788,-0.001377,0.003424,0.011087
675.000000,0.005929,0.003361,-0.001022,0.002810,-0.003535
676.000000,0.001289,0.000299,-0.001378,0.000280,-0.012919
677.000000,0.000059,-0.000385,-0.001195,-0.000049,0.007297
678.000000,-0.001642,-0.001473,-0.002307,-0.000530,-0.010140
679.000000,0.001143,0.001547,-0.001213,0.000555,0.025014
680.000000,0.003684,0.004807,-0.000569,0.000540,0.009167
681.000000,0.004463,0.002876,-0.000502,-0.000189,-0.009021
682.000000,-0.000743,-0.000342,-0.000680,-0.000600,-0.018736
683.000000,0.002709,0.000534,0.000015,-0.000567,0.007123
684.000000,-0.004943,-0.001900,0.000444,-0.001552,-0.013247
685.000000,-0.006956,-0.001636,0.000862,-0.001227,-0.000899
686.000000,-0.008418,-0.001977,-0.000839,-0.001578,-0.016329
687.000000,-0.004884,-0.002814,-0.001599,-0.001734,-0.001068
688.000000,-0.010566,-0.003928,-0.002700,-0.002847,-0.021284
689.000000,-0.005468,-0.005206,-0.001829,-0.002544,0.012240
690.000000,-0.002171,-0.004564,0.000121,-0.001901,0.015585
691.000000,0.004939,-0.001740,0.000568,-0.000914,0.019220
692.000000,0.007341,0.001228,0.000443,-0.000044,0.010945
693.000000,0.012859,0.001147,0.000840,0.000392,0.006305
694.000000,0.008265,0.001399,-0.000251,0.000762,-0.010728
695.000000,0.008082,0.002955,0.000660,0.001560,0.014667
696.000000,0.006985,0.005962,0.001992,0.001428,0.013737
697.000000,0.006598,0.006969,0.002078,0.001257,0.009007
698.000000,0.006217,0.009538,0.002805,0.001379,0.004402
699.000000,0.007198,0.007731,0.001263,0.001358,-0.005827
700.000000,0.002862,0.005472,0.000454,0.001905,-0.007009
701.000000,0.000172,0.003579,0.000920,0.001572,0.000287
702.000000,-0.001199,0.002699,0.001964,0.001195,0.002150
703.000000,-0.001651,0.002283,0.001715,0.001321,0.002145
704.000000,0.000939,0.004068,0.002733,0.001189,0.007118
705.000000,0.000573,0.001718,0.002337,0.001012,-0.008834
706.000000,0.004540,0.002356,0.004159,0.002114,0.020120
707.000000,0.004418,0.001610,0.004289,0.001922,0.001542
708.000000,0.003709,0.001029,0.005284,0.002213,-0.001402
709.000000,0.001301,0.001120,0.004426,0.001215,-0.004921
710.000000,0.005589,0.003081,0.004277,0.001330,0.012605
711.000000,0.002924,0.003732,0.003655,0.001857,0.006797
712.000000,0.005961,0.005189,0.003944,0.003039,0.016724
713.000000,0.012029,0.007869,0.005076,0.003766,0.028941
714.000000,0.010462,0.005881,0.004975,0.003783,-0.012759
715.000000,0.003805,0.004697,0.003207,0.003123,-0.020678
716.000000,0.003046,0.002985,0.002670,0.003768,0.003000
717.000000,-0.000817,0.002572,0.002091,0.003717,-0.002590
718.000000,-0.008829,0.001600,0.001315,0.004056,-0.011118
719.000000,-0.004655,0.002903,0.002011,0.003918,0.008111
720.000000,-0.000465,0.001670,0.002376,0.003408,0.000274
721.000000,-0.007349,-0.002152,0.000790,0.001720,-0.031422
722.000000,-0.004808,-0.002812,0.001189,0.001692,0.010118
723.000000,-0.000969,-0.004899,0.001485,0.001751,0.008077
724.000000,-0.002952,-0.003803,0.001039,0.002049,-0.001805
725.000000,0.001010,0.000273,0.002485,0.002229,0.020083
726.000000,0.007974,0.000313,0.001649,0.001885,0.003399
727.000000,0.007600,0.001396,0.001984,0.001859,0.008245
728.000000,0.004796,0.001914,0.001757,0.001514,-0.005940
729.000000,0.006318,0.001683,0.002293,0.001902,0.005806
730.000000,0.003884,0.002447,0.002059,0.002399,0.007912
731.000000,0.003578,0.005776,0.001812,0.002452,0.001868
732.000000,0.000511,0.004055,0.000621,0.002144,-0.007091
733.000000,0.003010,0.003903,-0.000498,0.002291,0.006557
734.000000,-0.000945,0.002687,-0.000558,0.001588,-0.013969
735.000000,-0.003802,0.000041,0.000157,0.001670,-0.006378
736.000000,-0.001768,0.000905,0.000609,0.001401,0.012043
737.000000,-0.000699,-0.000094,0.000651,0.001291,-0.001750
738.000000,-0.003689,-0.000339,0.000787,0.001058,-0.008389
739.000000,-0.002313,-0.001629,0.000027,0.000986,-0.007090
740.000000,-0.000082,-0.001942,0.000253,0.000725,0.004778
741.000000,-0.004049,-0.002908,0.001434,0.000239,-0.007793
742.000000,-0.004552,-0.002625,0.000715,-0.000461,-0.004264
743.000000,-0.001473,-0.002581,0.000661,-0.001192,0.007005
744.000000,0.001010,-0.000651,0.001018,-0.000589,0.005324
745.000000,-0.003212,-0.001647,-0.000803,-0.000444,-0.016334
746.000000,-0.004862,-0.004456,-0.001775,-0.001079,-0.016043
747.000000,-0.002469,-0.003510,-0.001802,-0.000736,0.007705
748.000000,-0.002064,-0.001768,-0.001054,-0.000064,0.009030
749.000000,0.000027,0.000519,-0.000555,0.000191,0.015779
750.000000,0.002858,-0.000177,-0.001060,0.000109,-0.002180
751.000000,0.007182,0.001160,-0.000874,0.001343,0.005578
752.000000,0.006535,0.002033,-0.000296,0.001154,0.004467
753.000000,0.003591,0.000764,-0.000909,0.000695,-0.005689
754.000000,-0.002218,-0.001095,-0.000873,0.000313,-0.013263
755.000000,-0.003357,-0.000249,-0.000948,-0.000619,-0.007877
756.000000,-0.005613,0.000784,-0.001836,-0.000922,-0.005704
757.000000,-0.007879,-0.000672,-0.002091,-0.001425,-0.006860
758.000000,-0.010771,-0.003590,-0.002679,-0.001899,-0.020151
759.000000,-0.007775,-0.004996,-0.002239,-0.002035,0.001719
760.000000,-0.006371,-0.004864,-0.002521,-0.002328,-0.000859
761.000000,-0.005173,-0.005393,-0.002117,-0.002380,0.000286
762.000000,-0.006482,-0.007180,-0.002574,-0.002591,-0.013406
763.000000,-0.002917,-0.006844,-0.003040,-0.002887,-0.002325
764.000000,-0.005249,-0.006512,-0.003803,-0.002753,-0.009940
765.000000,-0.004930,-0.005651,-0.002950,-0.002516,0.000734
766.000000,-0.005840,-0.005507,-0.002361,-0.003059,-0.004266
767.000000,-0.006519,-0.006501,-0.003586,-0.003561,-0.016800
768.000000,-0.001460,-0.002188,-0.002889,-0.002516,0.022972
769.000000,-0.003587,-0.004418,-0.004707,-0.002965,-0.020577
770.000000,0.006840,0.000955,-0.001954,-0.001362,0.052870
771.000000,0.007011,0.000585,-0.002404,-0.001216,-0.003411
772.000000,0.011563,0.002522,-0.002329,-0.000875,0.005961
773.000000,0.013182,0.005861,-0.000491,-0.000073,0.031067
774.000000,0.015672,0.006043,-0.000235,-0.000521,-0.008126
775.000000,0.002341,0.004591,-0.000530,-0.000436,-0.013786
776.000000,0.008090,0.007551,0.001022,0.000943,0.025335
777.000000,0.004395,0.007979,0.000739,0.000269,-0.012518
778.000000,-0.004944,0.004119,0.000965,-0.000553,-0.015625
779.000000,0.001982,0.008827,0.002205,-0.000196,0.026502
780.000000,0.008483,0.005412,0.003183,0.000501,0.018720
781.000000,0.002823,0.005457,0.003021,0.000216,-0.002961
782.000000,0.005677,0.005036,0.003779,0.000126,0.001751
783.000000,0.011422,0.003239,0.004550,0.000752,0.013100
784.000000,0.002504,0.002243,0.004143,0.000591,-0.018091
785.000000,-0.002815,0.002834,0.003712,0.000591,-0.007874
786.000000,-0.002414,0.000205,0.003878,0.000750,-0.000955
787.000000,-0.003913,0.000882,0.004430,0.000787,-0.005746
788.000000,-0.006753,0.002335,0.003227,0.001422,-0.001098
789.000000,-0.002942,-0.000219,0.004304,0.001397,0.000961
790.000000,0.001467,-0.000674,0.002369,0.001898,0.014171
791.000000,0.002818,0.000202,0.002829,0.002081,0.005801
792.000000,0.001231,-0.001341,0.001847,0.002072,-0.013679
793.000000,0.002485,-0.002134,0.000552,0.002322,0.005169
794.000000,0.004424,0.000741,0.001492,0.003009,0.010661
795.000000,0.001348,0.001408,0.002121,0.002944,-0.001209
796.000000,0.002300,0.002559,0.001382,0.003438,0.010561
797.000000,0.007153,0.004192,0.002537,0.004351,0.010582
798.000000,0.005381,0.003933,0.003134,0.003462,-0.003691
799.000000,0.003433,0.003929,0.001855,0.004179,0.000924
800.000000,0.003833,0.002591,0.000958,0.002443,0.000791
801.000000,0.000452,0.001376,0.000789,0.002345,-0.006348
802.000000,-0.000580,0.003286,0.000973,0.002327,0.005425
803.000000,-0.001272,0.002054,-0.000040,0.001053,-0.007151
804.000000,0.000974,0.002204,0.001472,0.001729,0.012153
805.000000,0.001837,0.002835,0.002121,0.002359,0.005108
806.000000,0.004953,0.002703,0.002631,0.001822,0.009232
807.000000,0.002908,0.001164,0.002678,0.002079,-0.004801
808.000000,0.005609,0.002169,0.003051,0.002812,0.006353
809.000000,0.004954,0.002964,0.003446,0.002225,0.008878
810.000000,0.004112,0.002974,0.002783,0.001630,0.000896
811.000000,0.000336,0.002645,0.002010,0.001408,-0.009645
812.000000,0.003660,0.003284,0.003285,0.001743,0.011818
813.000000,0.002900,0.004254,0.003154,0.001392,0.002551
814.000000,0.001684,0.003319,0.002761,0.002088,0.002798
815.000000,0.000690,0.002401,0.002618,0.002215,-0.004073
816.000000,0.004346,0.002341,0.002522,0.002534,0.008635
817.000000,0.001527,0.002593,0.001879,0.002650,-0.002278
818.000000,-0.001971,0.000464,0.001316,0.002188,-0.014938
819.000000,-0.001914,-0.000115,0.001424,0.002259,0.003082
820.000000,-0.002722,-0.001016,0.000979,0.001516,-0.008112
821.000000,-0.004423,-0.000039,0.001303,0.001327,0.000129
822.000000,-0.003968,-0.001221,0.001032,0.001783,0.000000
823.000000,-0.000386,-0.001179,0.001538,0.001710,0.002969
824.000000,0.000538,-0.000688,0.001315,0.001611,0.007703
825.000000,0.002824,0.000051,0.001226,0.001762,0.003320
826.000000,0.004828,0.000202,0.001272,0.001749,0.010146
827.000000,0.005784,0.000908,0.001751,0.001555,0.004783
828.000000,0.004738,0.002176,0.001320,0.001603,-0.002263
829.000000,0.004001,0.002270,0.001077,0.001706,0.004020
830.000000,0.000331,0.001578,0.000281,0.001179,-0.015030
831.000000,0.001082,0.002955,0.001458,0.001854,0.013901
832.000000,-0.001538,0.002123,0.000451,0.001396,-0.008318
833.000000,0.001205,0.002971,0.000896,0.002016,0.011450
834.000000,0.000476,0.002238,0.000775,0.001623,0.000375
835.000000,0.001799,0.001065,0.000558,0.001172,-0.008414
836.000000,-0.009457,-0.004187,-0.001993,-0.000548,-0.042379
837.000000,-0.005569,-0.003554,-0.001323,-0.000017,0.011122
838.000000,-0.010743,-0.004769,-0.001297,-0.000710,-0.014417
839.000000,-0.011320,-0.005422,-0.001576,-0.001089,-0.002511
840.000000,-0.008318,-0.003259,-0.000841,-0.000899,0.006595
841.000000,0.000735,-0.004361,-0.000703,-0.000482,0.002888
842.000000,-0.000782,-0.003176,-0.000526,-0.000758,0.003533
843.000000,0.003481,-0.003631,-0.000330,-0.000613,0.006900
844.000000,0.003334,-0.003993,-0.000877,-0.000814,-0.003249
845.000000,0.004086,-0.002116,-0.000525,-0.000333,0.010359
846.000000,0.001801,0.001268,-0.001460,-0.000906,-0.008538
847.000000,0.002209,0.000713,-0.001420,-0.000644,0.005571
848.000000,-0.004407,-0.000463,-0.002616,-0.001019,-0.026180
849.000000,-0.004156,-0.000411,-0.002917,-0.001188,-0.001991
850.000000,-0.007294,-0.001604,-0.002432,-0.001095,-0.005330
851.000000,-0.004307,-0.001253,-0.002807,-0.000886,0.006392
852.000000,-0.006861,-0.002326,-0.002751,-0.001126,-0.007194
853.000000,0.002583,-0.000912,-0.002272,-0.000524,0.021037
854.000000,0.002902,-0.000627,-0.002310,-0.000794,-0.000393
855.000000,0.004178,-0.001558,-0.001837,-0.000870,0.001047
856.000000,0.004749,0.000221,0.000744,-0.000900,0.009247
857.000000,0.006498,-0.000181,0.000266,-0.001007,0.001554
858.000000,0.002162,0.002372,0.000955,-0.000953,-0.000647
859.000000,0.002603,0.002752,0.001171,-0.001027,0.001812
860.000000,0.002005,0.003091,0.000744,-0.000591,-0.001941
861.000000,-0.000130,0.002310,0.000528,-0.001102,-0.001426
862.000000,0.000595,0.003546,0.000610,-0.000652,0.005175
863.000000,0.001317,0.001739,0.000413,-0.000935,0.002964
864.000000,0.001134,0.001868,0.000621,-0.000917,0.000900
865.000000,0.002574,0.002289,0.000366,-0.000461,0.005257
866.000000,-0.000806,-0.000468,-0.000124,0.000340,-0.018325
867.000000,-0.002729,-0.001067,-0.000624,-0.000178,-0.004438
868.000000,-0.003636,-0.001159,0.000606,0.000250,-0.001571
869.000000,-0.003344,-0.001105,0.000824,0.000412,0.002356
870.000000,-0.004788,-0.001107,0.000992,0.000127,-0.001963
871.000000,0.002176,0.000685,0.001497,0.000580,0.016497
872.000000,0.003218,0.000245,0.001896,0.000488,0.000773
873.000000,0.005148,0.000756,0.001248,0.000528,0.008077
874.000000,0.009297,0.002976,0.002422,0.001406,0.023100
875.000000,0.001045,-0.001872,0.000209,-0.000380,-0.043222
876.000000,-0.007937,-0.002880,-0.001674,-0.001043,-0.028413
877.000000,-0.005190,-0.000986,-0.001027,-0.000745,0.014506
878.000000,-0.004103,0.000523,-0.000318,0.000579,0.013516
879.000000,-0.002537,0.003380,0.001138,0.001676,0.030930
880.000000,0.006209,0.003627,0.001260,0.001870,0.000505
881.000000,0.010751,0.001407,0.001046,0.001467,-0.005700
882.000000,0.007901,0.001355,0.000800,0.001716,0.000254
883.000000,0.004562,0.000230,0.000493,0.000908,-0.003180
884.000000,0.001661,-0.000438,0.001269,0.001469,0.016427
885.000000,0.002585,0.004397,0.001263,0.001605,0.005125
886.000000,0.004248,0.007500,0.002310,0.001384,0.002615
887.000000,0.003749,0.005825,0.002420,0.001257,-0.002241
888.000000,0.004286,0.004424,0.002473,0.001262,-0.000499
889.000000,0.000326,0.000993,0.002187,0.001090,-0.003373
890.000000,-0.000725,0.000930,0.002279,0.001150,-0.000125
891.000000,-0.001975,0.001137,0.001272,0.001076,-0.003636
892.000000,0.000174,0.001962,0.001659,0.001187,0.008504
893.000000,-0.000624,0.001831,0.001030,0.000939,-0.004493
894.000000,0.001347,0.000836,0.000199,0.001125,0.006484
895.000000,0.000100,-0.000312,0.002042,0.000738,-0.006359
896.000000,0.001701,-0.000137,0.003681,0.001494,0.004368
897.000000,-0.001450,-0.000638,0.002594,0.001400,-0.007249
898.000000,-0.001406,-0.001015,0.001704,0.001310,-0.004274
899.000000,-0.005749,-0.002201,-0.000604,0.000724,-0.015233
900.000000,-0.006638,-0.003269,-0.001169,0.000429,-0.010803
901.000000,-0.009408,-0.003854,-0.001358,-0.000437,-0.009484
902.000000,-0.007932,-0.004691,-0.001365,-0.000458,0.000131
903.000000,-0.006660,-0.004033,-0.001101,-0.000658,0.002086
904.000000,-0.004109,-0.004929,-0.002047,-0.001510,-0.002478
905.000000,-0.003049,-0.004843,-0.002578,-0.000253,-0.005499
906.000000,-0.001651,-0.005530,-0.002833,0.000611,-0.002498
907.000000,-0.001047,-0.004490,-0.002564,0.000233,0.003154
908.000000,-0.001779,-0.004220,-0.002618,-0.000270,-0.001576
909.000000,-0.002655,-0.003382,-0.002792,-0.001530,-0.006857
910.000000,-0.001767,-0.002408,-0.002838,-0.001582,-0.001059
911.000000,-0.002170,-0.001911,-0.002882,-0.001543,-0.004513
912.000000,-0.001132,-0.001089,-0.002890,-0.001273,0.008347
913.000000,0.001909,0.000065,-0.001984,-0.000713,0.013629
914.000000,0.003150,0.000248,-0.002341,-0.001282,-0.000651
915.000000,0.004194,0.001214,-0.001815,-0.001314,0.004159
916.000000,0.005718,0.001774,-0.001878,-0.001298,0.003108
917.000000,0.004669,0.001769,-0.001361,-0.001120,0.003098
918.000000,0.003202,0.002556,-0.000832,-0.000893,0.006296
919.000000,0.004354,0.003752,0.000185,-0.000610,0.005111
920.000000,0.004311,0.004253,0.000922,-0.000475,0.003943
921.000000,0.003461,0.004590,0.001339,-0.000392,-0.001143
922.000000,0.001029,0.002849,0.000880,-0.000977,-0.009064
923.000000,-0.000256,0.001473,0.000769,-0.000832,-0.000128
924.000000,0.001751,0.003053,0.001650,-0.000543,0.015147
925.000000,0.001719,0.003015,0.002114,-0.000205,0.003783
926.000000,0.004026,0.003743,0.002759,-0.000004,0.010391
927.000000,0.003130,0.002079,0.001924,-0.000214,-0.013543
928.000000,-0.001312,-0.000784,0.000886,-0.000816,-0.022341
929.000000,-0.001649,0.000051,0.001902,0.000140,0.013464
930.000000,-0.004892,-0.001587,0.001333,0.000086,-0.012432
931.000000,-0.007409,-0.001692,0.001449,0.000329,-0.002195
932.000000,-0.003335,-0.000103,0.001373,0.000552,0.006827
933.000000,0.000361,-0.000476,0.000499,0.000354,-0.003859
934.000000,0.000255,-0.000697,0.001178,0.000868,0.012931
935.000000,0.003021,-0.000936,0.001040,0.001098,0.001398
936.000000,0.002696,-0.002357,0.000693,0.001054,-0.003818
937.000000,0.003966,0.000315,0.001197,0.001388,0.013175
938.000000,0.003044,0.001702,0.000459,0.001158,-0.008468
939.000000,-0.001404,-0.000575,-0.000262,0.001076,-0.009308
940.000000,-0.002505,0.000258,-0.000664,0.000975,-0.004108
941.000000,0.000484,0.001590,-0.000051,0.001496,0.011129
942.000000,-0.005745,-0.000890,-0.000496,0.000619,-0.017970
943.000000,-0.003534,-0.000245,-0.000360,0.000251,0.002587
944.000000,-0.001802,-0.001603,-0.001150,0.000251,-0.000646
945.000000,-0.004264,-0.003385,-0.002160,-0.000435,-0.016422
946.000000,-0.006464,-0.002990,-0.002673,-0.000534,0.000131
947.000000,-0.001482,-0.003613,-0.001649,-0.000406,0.006939
948.000000,-0.004626,-0.004080,-0.001189,-0.001054,-0.013134
949.000000,-0.003679,-0.002740,-0.001658,-0.001088,0.004090
950.000000,-0.002725,-0.003495,-0.001619,-0.001608,-0.011654
951.000000,-0.001186,-0.003825,-0.001117,-0.001309,0.007829
952.000000,-0.002759,-0.002120,-0.001505,-0.001038,-0.000926
953.000000,0.001029,-0.001799,-0.001022,-0.000840,0.005804
954.000000,0.000657,-0.001511,-0.001557,-0.001270,0.002233
955.000000,0.003486,0.000380,-0.001502,-0.001313,0.002490
956.000000,0.002156,0.000485,-0.001252,-0.001621,0.001177
957.000000,0.001003,-0.000878,-0.002246,-0.001392,-0.006691
958.000000,0.002951,0.001990,-0.001045,-0.000129,0.015543
959.000000,0.002089,0.001373,-0.000684,-0.000647,-0.002076
960.000000,0.001591,0.002538,-0.000478,-0.000233,0.000000
961.000000,-0.000550,0.000803,-0.001511,-0.000477,-0.009526
962.000000,0.000814,0.000909,-0.000606,-0.000701,0.000131
963.000000,-0.011030,-0.004039,-0.002919,-0.002028,-0.043677
964.000000,-0.014989,-0.006450,-0.003981,-0.003188,-0.021875
965.000000,-0.017298,-0.007854,-0.003737,-0.003619,-0.011545
966.000000,-0.014545,-0.007548,-0.003531,-0.003351,0.004239
967.000000,-0.014713,-0.006949,-0.003914,-0.003814,-0.000705
968.000000,-0.004459,-0.007744,-0.002877,-0.003278,0.007591
969.000000,0.007931,-0.003529,-0.001078,-0.001632,0.040077
970.000000,0.013999,-0.001650,0.000444,-0.000869,0.018792
971.000000,0.011480,-0.001533,-0.000365,-0.001518,-0.008353
972.000000,0.001574,-0.006569,-0.002830,-0.002594,-0.050236
973.000000,0.001229,-0.001615,-0.002827,-0.002485,0.005863
974.000000,-0.002219,0.002856,-0.001797,-0.001702,0.022841
975.000000,-0.006331,0.003834,-0.002010,-0.001213,-0.001770
976.000000,-0.004143,0.003668,-0.001940,-0.001131,0.002586
977.000000,0.005931,0.003753,-0.001598,-0.001358,0.000136
978.000000,0.004949,0.003089,-0.002328,-0.000889,0.000951
979.000000,0.001976,-0.000121,-0.001825,-0.000759,0.007979
980.000000,0.005670,-0.000331,-0.000990,0.000186,0.016697
981.000000,0.006631,0.001244,-0.000144,0.000171,0.007391
982.000000,0.006656,0.006294,-0.000138,0.000211,0.000263
983.000000,0.007515,0.006232,0.002308,0.000192,0.005245
984.000000,0.003842,0.002909,0.002883,-0.000228,-0.010385
985.000000,-0.006216,-0.000273,0.001780,-0.001431,-0.033592
986.000000,-0.005249,0.000691,0.002180,-0.001063,0.012223
987.000000,-0.004574,0.001041,0.002397,-0.000718,0.003638
988.000000,-0.008249,-0.000367,0.001361,-0.001674,-0.013132
989.000000,-0.005031,-0.000594,-0.000358,-0.001415,0.005707
990.000000,0.000818,-0.002699,-0.001515,-0.001560,-0.004345
991.000000,0.000324,-0.002463,-0.000609,-0.000917,0.009751
992.000000,0.001073,-0.001750,0.002272,-0.000675,0.007385
993.000000,0.003325,-0.002462,0.001885,0.000718,-0.001875
994.000000,0.001539,-0.001746,0.000582,0.001340,-0.003222
995.000000,-0.001174,-0.000178,-0.000225,0.001128,-0.017908
996.000000,-0.003371,-0.001523,-0.000416,0.000945,-0.001233
997.000000,-0.004930,-0.001928,-0.000444,0.000955,-0.000411
998.000000,-0.002183,0.000571,0.000102,0.001097,0.011859
999.000000,-0.001052,0.000244,-0.000175,-0.000157,0.002436
1000.000000,0.000847,-0.000163,-0.001431,-0.001064,-0.008416
1001.000000,0.000164,-0.001603,-0.002033,-0.000941,-0.004645
1002.000000,0.001856,-0.001537,-0.001644,0.001002,0.008048
1003.000000,0.001000,-0.000591,-0.001527,0.001059,0.007579
1004.000000,-0.000704,-0.000878,-0.001312,0.000095,-0.006086
1005.000000,0.000898,0.000872,0.000347,0.000141,-0.000407
1006.000000,0.001174,0.000669,-0.000427,-0.000054,-0.003262
1007.000000,-0.001610,0.000123,-0.000903,-0.000255,-0.005872
1008.000000,0.000162,0.000581,0.000576,0.000261,0.016435
1009.000000,-0.000679,-0.000692,-0.000224,-0.000348,-0.010291
1010.000000,-0.000516,0.000191,0.000014,-0.000890,0.000408
1011.000000,0.000625,0.000900,-0.000352,-0.001055,0.002446
1012.000000,-0.000549,-0.001079,-0.001308,-0.001455,-0.011741
1013.000000,-0.003232,-0.001535,-0.001063,-0.001530,0.003017
1014.000000,-0.000381,-0.000530,-0.000704,-0.001051,0.003963
1015.000000,0.000000,-0.000258,0.000307,0.000145,0.002316
1016.000000,-0.000925,-0.000150,0.000260,-0.000335,-0.002179
1017.000000,0.001805,0.000628,0.000376,-0.000392,0.001907
1018.000000,-0.000851,-0.002041,-0.000730,-0.000297,-0.010259
1019.000000,-0.004663,-0.002522,-0.001607,-0.000990,-0.015100
1020.000000,-0.002878,-0.001439,-0.000624,-0.000471,0.011243
1021.000000,0.000545,-0.000190,0.000355,-0.000298,0.014933
1022.000000,-0.000136,0.000834,-0.000122,-0.000594,-0.001497
1023.000000,0.001616,0.000383,-0.000576,-0.000581,-0.001499
1024.000000,0.004963,0.000150,-0.000190,-0.000419,0.001635
1025.000000,0.000799,-0.001039,-0.000649,-0.000142,-0.009577
1026.000000,-0.001556,-0.000506,-0.000328,0.000005,0.003157
1027.000000,0.001384,0.000624,0.000626,0.000458,0.013206
1028.000000,0.000027,0.000822,-0.000610,-0.000213,-0.008284
1029.000000,0.000924,0.002943,0.000211,-0.000090,0.006118
1030.000000,0.001670,0.001235,-0.000102,-0.000005,-0.005845
1031.000000,-0.000659,-0.001108,-0.000649,-0.000133,-0.008489
1032.000000,-0.001058,0.000163,0.000499,-0.000027,0.011211
1033.000000,0.000654,0.000340,0.000362,-0.000271,0.000272
1034.000000,0.002719,0.001822,0.000986,0.000480,0.016447
1035.000000,0.002923,0.002297,0.000629,0.000333,-0.004825
1036.000000,0.003002,0.001172,0.000333,0.000172,-0.008094
1037.000000,-0.000954,-0.001006,-0.000191,0.000082,-0.008570
1038.000000,0.001705,0.001179,0.001001,-0.000013,0.013569
1039.000000,-0.002394,0.000163,0.001553,0.000195,-0.004051
1040.000000,0.000429,0.001676,0.001455,0.000491,0.009294
1041.000000,0.001161,0.002082,0.000487,0.000261,-0.004434
1042.000000,0.002498,0.000772,0.000468,0.000590,-0.001887
1043.000000,0.000431,0.001068,0.000704,0.000597,0.003233
1044.000000,0.001564,-0.000415,0.000703,0.000519,0.001612
1045.000000,-0.000215,0.000107,0.001202,0.000455,0.000403
1046.000000,0.004790,0.002976,0.002074,0.001214,0.020589
1047.000000,0.004509,0.003503,0.001249,0.001041,-0.003292
1048.000000,0.004468,0.002450,0.001814,0.001484,0.003029
1049.000000,0.003117,0.002340,0.001251,0.001815,-0.005142
1050.000000,0.002560,0.001173,0.001425,0.001361,-0.002382
1051.000000,-0.000316,0.002237,0.002159,0.001070,0.006208
1052.000000,0.000105,0.002307,0.001540,0.001081,-0.001186
1053.000000,0.001963,0.003216,0.002142,0.001541,0.012317
1054.000000,0.002887,0.003002,0.001293,0.001469,-0.000521
1055.000000,0.002790,0.002675,0.001391,0.001693,-0.002871
1056.000000,0.003395,0.001539,0.002258,0.001896,0.009235
1057.000000,0.002958,0.001532,0.002518,0.001343,-0.003372
1058.000000,0.000754,0.001358,0.001904,0.001662,0.001298
1059.000000,0.002820,0.002854,0.002597,0.001786,0.009812
1060.000000,0.000626,0.001708,0.001440,0.001519,-0.013841
1061.000000,-0.001012,0.001191,0.001714,0.001837,0.001042
1062.000000,0.000467,0.001712,0.002010,0.001597,0.004026
1063.000000,-0.001197,-0.000222,0.001497,0.001354,-0.007023
1064.000000,-0.003159,-0.000170,0.001416,0.000806,0.000000
1065.000000,0.000780,0.000703,0.001689,0.001162,0.005856
1066.000000,0.000494,-0.000259,0.000640,0.001419,-0.000389
1067.000000,-0.000779,-0.000156,0.000688,0.001626,-0.002339
1068.000000,0.000963,-0.000117,0.000621,0.001230,0.001690
1069.000000,-0.000444,-0.001802,0.000526,0.001131,-0.007039
1070.000000,-0.000858,-0.000039,0.000834,0.000947,0.003786
1071.000000,-0.002508,-0.001007,0.000092,0.000807,-0.008638
1072.000000,-0.000861,-0.000820,0.000446,0.001067,0.005897
1073.000000,-0.002168,-0.000602,-0.000412,0.000797,-0.004846
1074.000000,0.001148,0.000352,0.000091,0.001062,0.009539
1075.000000,0.000469,-0.000195,0.000254,0.001061,0.000390
1076.000000,0.000394,-0.001057,-0.000658,0.000074,-0.009011
1077.000000,-0.001917,-0.001389,-0.000772,-0.000004,-0.005657
1078.000000,0.002894,0.000363,0.000123,0.000535,0.019207
1079.000000,0.001761,0.001454,-0.000174,0.000835,0.003875
1080.000000,0.001631,0.001050,0.000505,0.000906,-0.000258
1081.000000,0.004129,0.002261,0.000627,0.000815,0.003476
1082.000000,0.005696,0.001890,0.000535,0.000927,0.002182
1083.000000,0.002648,0.002771,0.001084,0.000649,0.003967
1084.000000,0.002969,0.002365,0.001358,0.000849,0.005477
1085.000000,0.004564,0.003098,0.001451,0.001202,0.007718
1086.000000,0.002478,0.003303,0.001123,0.000662,-0.006956
1087.000000,0.005838,0.005767,0.002189,0.001407,0.018984
1088.000000,0.003620,0.003134,0.001749,0.001127,-0.007124
1089.000000,0.003700,0.003334,0.002394,0.000996,0.005878
1090.000000,0.002779,0.003671,0.002361,0.001561,0.003112
1091.000000,0.006493,0.004485,0.003373,0.001913,0.011617
1092.000000,0.003970,0.004904,0.003397,0.001991,0.006369
1093.000000,0.006855,0.005237,0.004004,0.002469,0.007298
1094.000000,0.005606,0.004653,0.003509,0.002457,-0.000364
1095.000000,0.005927,0.004353,0.003725,0.002419,0.004717
1096.000000,0.002782,0.004638,0.003970,0.002295,-0.004111
1097.000000,0.001266,0.002618,0.004193,0.002332,-0.001212
1098.000000,0.000291,0.003573,0.003353,0.002357,0.002423
1099.000000,0.000750,0.003178,0.003256,0.002656,0.001934
1100.000000,-0.001429,0.002249,0.002960,0.002323,-0.006179
1101.000000,-0.000947,0.000917,0.002701,0.002555,-0.001703
1102.000000,-0.000170,0.000548,0.002726,0.002447,0.002675
1103.000000,0.000508,0.000399,0.002818,0.002802,0.005811
1104.000000,0.000964,0.000857,0.002755,0.002625,0.004216
1105.000000,0.002680,0.000626,0.002489,0.002692,0.002401
1106.000000,0.004835,0.001944,0.003291,0.003295,0.009073
1107.000000,0.004822,0.002326,0.002472,0.003570,0.002611
1108.000000,0.004063,0.002285,0.002929,0.002997,0.002013
1109.000000,0.004328,0.002646,0.002912,0.003053,0.005544
1110.000000,0.006768,0.004724,0.003487,0.003548,0.014597
1111.000000,0.005115,0.004975,0.002946,0.003459,0.000811
1112.000000,0.003478,0.004150,0.002349,0.003201,-0.005576
1113.000000,0.002212,0.003137,0.001768,0.002924,-0.004319
1114.000000,0.001593,0.002961,0.001909,0.002824,0.002454
1115.000000,-0.002356,0.002206,0.001416,0.002395,-0.005148
1116.000000,-0.001582,0.001767,0.001855,0.002783,0.004681
1117.000000,-0.000957,0.001260,0.001793,0.002068,-0.002455
1118.000000,0.001631,0.001921,0.002103,0.002593,0.008624
1119.000000,0.001303,0.001448,0.002047,0.002424,0.000812
1120.000000,0.002286,-0.000035,0.002345,0.002313,-0.000232
1121.000000,0.000699,-0.000441,0.002267,0.001817,-0.003252
1122.000000,0.003043,0.001043,0.002597,0.001914,0.009265
1123.000000,0.001641,0.001636,0.002387,0.001724,0.001613
1124.000000,0.001732,0.001517,0.002239,0.001778,0.001265
1125.000000,0.001364,0.001825,0.002015,0.001552,-0.002071
1126.000000,0.001968,0.001334,0.001550,0.001681,-0.000230
1127.000000,0.000897,0.001970,0.001615,0.001852,0.003909
1128.000000,-0.001201,0.000220,0.001071,0.001476,-0.008876
1129.000000,-0.000161,0.000785,0.001117,0.001627,0.006463
1130.000000,-0.000762,0.000301,0.000133,0.001663,-0.005074
1131.000000,0.000138,0.001053,0.000306,0.001862,0.004269
1132.000000,-0.000138,0.000380,0.000711,0.001858,0.002530
1133.000000,0.002119,0.000459,0.001048,0.001744,0.002409
1134.000000,0.000872,0.000356,0.000936,0.001611,0.000229
1135.000000,0.003666,0.001452,0.001639,0.001828,0.008894
1136.000000,0.003288,0.001713,0.001524,0.001605,0.002381
1137.000000,0.002488,0.001175,0.001573,0.001468,-0.001473
1138.000000,0.003835,0.002977,0.001599,0.001706,0.009145
1139.000000,0.003001,0.001937,0.001361,0.001390,-0.003941
1140.000000,0.003019,0.003343,0.001822,0.001203,0.008986
1141.000000,0.003347,0.003318,0.002185,0.001310,0.004017
1142.000000,0.003530,0.003009,0.001694,0.001477,-0.000557
1143.000000,0.002480,0.003157,0.001808,0.001751,0.003893
1144.000000,0.002400,0.002701,0.001528,0.001524,-0.004338
1145.000000,0.000179,0.001599,0.001526,0.001625,-0.002120
1146.000000,-0.000736,0.001305,0.001509,0.001451,-0.000559
1147.000000,-0.002354,0.000588,0.000882,0.001244,-0.008644
1148.000000,-0.004558,-0.001039,0.000969,0.000719,-0.007129
1149.000000,-0.003827,-0.000713,0.000612,0.000670,-0.000682
1150.000000,-0.016772,-0.008296,-0.002477,-0.001551,-0.066844
1151.000000,-0.020041,-0.010389,-0.003536,-0.002006,-0.016908
1152.000000,-0.014446,-0.008400,-0.002695,-0.001670,0.019335
1153.000000,-0.013651,-0.009105,-0.002974,-0.001829,-0.003156
1154.000000,-0.013515,-0.008671,-0.002985,-0.001871,0.000000
1155.000000,0.000121,-0.008325,-0.003363,-0.001758,0.001336
1156.000000,0.004424,-0.007809,-0.003252,-0.001597,0.004603
1157.000000,0.000557,-0.006944,-0.003178,-0.001727,0.000000
1158.000000,0.000558,-0.006546,-0.003793,-0.001536,-0.003147
1159.000000,-0.001808,-0.007661,-0.004187,-0.002146,-0.011830
1160.000000,-0.000535,-0.000207,-0.004252,-0.001720,0.007699
1161.000000,0.000411,0.002417,-0.003986,-0.001551,0.009331
1162.000000,0.000024,0.000290,-0.004055,-0.001700,-0.001932
1163.000000,0.002578,0.001568,-0.003768,-0.001460,0.009621
1164.000000,0.001516,-0.000146,-0.004408,-0.002039,-0.017142
1165.000000,0.000024,-0.000255,-0.004290,-0.002327,0.000243
1166.000000,-0.003455,-0.001522,-0.004666,-0.002675,-0.008067
1167.000000,-0.001528,-0.000752,-0.003848,-0.002370,0.007701
1168.000000,-0.004699,-0.001060,-0.003803,-0.002882,-0.006230
1169.000000,-0.002573,-0.000529,-0.004095,-0.002968,-0.006515
1170.000000,0.000583,0.000304,0.000049,-0.002733,0.016028
1171.000000,0.000906,-0.001275,0.000571,-0.003082,-0.006454
1172.000000,-0.000292,-0.000910,-0.000310,-0.003007,0.001709
1173.000000,0.003305,-0.000697,0.000436,-0.002744,0.011760
1174.000000,0.006145,0.001786,0.000820,-0.002344,0.007684
1175.000000,0.003585,0.002084,0.000914,-0.002165,0.003224
1176.000000,0.003368,0.002137,0.000307,-0.002398,-0.007539
1177.000000,0.002062,0.000885,0.000066,-0.002271,-0.004816
1178.000000,0.001537,0.002421,0.000680,-0.001729,0.009131
1179.000000,0.000502,0.003324,0.001397,-0.001622,0.002509
1180.000000,0.002935,0.003260,0.001782,0.001119,0.015390
1181.000000,0.004631,0.003999,0.001362,0.001714,0.000939
1182.000000,0.003944,0.003003,0.001046,0.000794,-0.008250
1183.000000,0.002992,0.002264,0.000784,0.001045,0.004369
1184.000000,0.002112,0.001307,0.001547,0.000982,-0.001887
1185.000000,0.000750,0.001843,0.001963,0.001224,0.008581
1186.000000,0.000843,0.002737,0.002437,0.001117,0.001404
1187.000000,0.003798,0.003871,0.002378,0.001335,0.006524
1188.000000,0.002994,0.002993,0.002707,0.001451,0.000348
1189.000000,0.002371,0.002241,0.002782,0.001679,-0.005004
1190.000000,0.003066,0.001908,0.002584,0.001824,0.012060
1191.000000,0.002763,0.001803,0.002901,0.001509,-0.000115
1192.000000,0.000973,0.002386,0.002694,0.001493,-0.002424
1193.000000,0.002147,0.002571,0.002417,0.001379,0.006221
1194.000000,0.001372,0.001871,0.001589,0.001655,-0.008882
1195.000000,0.002565,0.002816,0.002329,0.002248,0.018027
1196.000000,0.003836,0.003299,0.003018,0.002724,0.006239
1197.000000,0.003664,0.002318,0.003095,0.002358,-0.003285
1198.000000,0.002420,0.002284,0.002638,0.002566,0.000000
1199.000000,0.005192,0.003282,0.002762,0.002949,0.004980
1200.000000,0.001316,0.001940,0.001924,0.002370,-0.001356
1201.000000,0.000090,0.001963,0.001883,0.002588,0.000113
1202.000000,0.000996,0.002330,0.002358,0.002573,0.001243
1203.000000,0.000793,0.001606,0.002088,0.002147,-0.001017
1204.000000,0.000586,0.002889,0.002380,0.002022,0.003947
1205.000000,0.001082,0.001199,0.002007,0.001952,0.001125
1206.000000,0.001150,0.000620,0.001960,0.002219,0.000450
1207.000000,0.000045,0.000521,0.001420,0.002237,-0.004280
1208.000000,0.000339,0.000566,0.001425,0.001947,0.000451
1209.000000,0.000809,0.000697,0.001990,0.002074,0.006298
1210.000000,0.000202,0.000642,0.001291,0.001497,-0.001908
1211.000000,0.000314,0.000732,0.001348,0.001499,0.001010
1212.000000,-0.000248,-0.000102,0.001114,0.001538,-0.007094
1213.000000,0.000676,0.000507,0.001057,0.001561,0.005072
1214.000000,-0.002868,-0.001030,0.000930,0.001244,-0.011421
1215.000000,-0.005858,-0.002828,-0.000815,0.000396,-0.016859
1216.000000,-0.004654,-0.002170,-0.000775,0.000583,0.007031
1217.000000,-0.002456,-0.001352,-0.000416,0.000496,0.003897
1218.000000,-0.005332,-0.002328,-0.000881,0.000174,-0.009310
1219.000000,-0.002265,-0.002566,-0.000934,0.000471,0.003918
1220.000000,-0.001416,-0.003637,-0.001497,-0.000351,-0.012617
1221.000000,-0.003125,-0.003890,-0.001579,-0.000398,-0.001515
1222.000000,-0.003881,-0.003169,-0.001635,-0.000313,0.000117
1223.000000,-0.004295,-0.004814,-0.002153,-0.000900,-0.011379
1224.000000,-0.004725,-0.003495,-0.002262,-0.000545,0.001768
1225.000000,-0.000607,-0.001011,-0.001920,-0.000880,0.007977
1226.000000,-0.000257,-0.001691,-0.001930,-0.001080,0.000234
1227.000000,-0.000584,-0.002233,-0.001792,-0.001021,-0.001520
1228.000000,0.003160,-0.000567,-0.001448,-0.000777,0.007343
1229.000000,0.001735,-0.001495,-0.002031,-0.001121,-0.005356
1230.000000,-0.000281,-0.000444,-0.002040,-0.001146,-0.002104
1231.000000,0.002161,0.000952,-0.001469,-0.000735,0.012441
1232.000000,0.000864,0.000140,-0.001514,-0.001043,-0.008005
1233.000000,0.000325,0.001743,-0.001536,-0.000855,0.004648
1234.000000,0.002529,0.002132,-0.000681,-0.000797,0.005665
1235.000000,0.003342,0.001530,0.000260,-0.000770,0.001958
1236.000000,0.002344,0.002252,0.000281,-0.000536,0.007451
1237.000000,0.005877,0.003370,0.000569,-0.000072,0.009661
1238.000000,0.003106,0.001716,0.000574,-0.000393,-0.009204
1239.000000,0.003021,0.002775,0.000640,-0.000429,0.005237
1240.000000,0.004753,0.004047,0.001802,-0.000011,0.010618
1241.000000,0.001388,0.001866,0.001409,-0.000357,-0.009370
1242.000000,-0.000068,0.002904,0.001522,-0.000041,0.002379
1243.000000,0.000684,0.001895,0.001819,-0.000392,-0.005446
