1.000000,0.023561,0.001493,0.002224,0.002674,0.001942,0.010465,-0.006406,0.008996,0.006349,-0.012409,0.000000
1.000000,0.004035,0.004265,0.000210,0.002901,0.001533,0.010644,-0.006059,0.009815,0.007866,-0.011252,0.000000
1.000000,0.012961,0.006725,0.002707,0.002896,0.002304,0.011069,-0.005599,0.008903,0.007811,-0.007798,0.000000
1.000000,0.001589,0.012105,0.001310,0.003128,0.002147,0.011008,-0.005955,0.008553,0.007131,-0.008353,0.000000
1.000000,-0.014872,0.005455,0.000460,0.002808,0.001410,0.011760,-0.005224,0.006917,0.006261,-0.006710,0.000000
1.000000,0.004020,0.001546,0.001520,0.002856,0.002211,0.011718,-0.004901,0.006723,0.005834,-0.006419,0.000000
1.000000,0.011646,0.003069,0.003667,0.003015,0.003048,0.011710,-0.004638,0.006630,0.005928,-0.006163,0.000000
1.000000,-0.003655,-0.000255,0.003235,0.001989,0.002558,0.011795,-0.005227,0.005953,0.006411,-0.005809,0.000000
1.000000,-0.007831,-0.002138,0.004983,0.002525,0.001932,0.011529,-0.005229,0.006779,0.006632,-0.007333,0.000000
1.000000,0.003523,0.001541,0.003498,0.002499,0.002055,0.011492,-0.003278,0.006398,0.006749,-0.003117,0.000000
1.000000,0.002076,0.001152,0.001349,0.001786,0.002232,0.011543,-0.003827,0.005612,0.007218,-0.003425,0.000000
1.000000,0.005410,-0.000095,0.001487,0.000848,0.002430,0.011531,-0.004074,0.005558,0.007145,-0.003184,0.000000
1.000000,0.006012,0.001838,0.000792,0.001749,0.002195,0.011687,-0.004008,0.005257,0.007256,-0.002855,0.000000
1.000000,-0.002369,0.002930,0.000396,0.000853,0.002217,0.011404,-0.004879,0.006090,0.008408,-0.005131,0.000000
1.000000,-0.013850,-0.000544,0.000498,0.000479,0.002038,0.011518,-0.003690,0.007083,0.010222,-0.003230,0.000000
1.000000,0.001922,-0.000575,0.000288,0.000904,0.002000,0.011754,-0.003294,0.006696,0.011504,-0.002282,0.000000
1.000000,0.002237,-0.001210,-0.000652,0.001507,0.001793,0.011741,-0.003407,0.006563,0.011273,-0.001693,0.000000
1.000000,-0.008658,-0.004144,-0.001153,0.001041,0.000942,0.011833,-0.002739,0.006522,0.009629,-0.000371,0.000000
1.000000,0.021821,0.000694,0.001812,0.003398,0.002288,0.012388,-0.005977,0.004407,0.008160,0.000333,0.000000
1.000000,-0.004896,0.002485,0.000970,0.002234,0.001990,0.012916,-0.004877,0.004739,0.010427,0.001795,0.000000
1.000000,-0.010665,-0.000032,-0.000304,0.000523,0.001090,0.012792,-0.005774,0.005366,0.012954,0.002909,0.000000
1.000000,0.028553,0.005231,0.002011,0.001749,0.001236,0.013119,-0.006303,0.005988,0.012741,0.003234,0.000000
1.000000,-0.010317,0.004899,0.000378,0.000585,0.001292,0.012564,-0.006676,0.001316,0.004394,0.001544,0.000000
1.000000,0.012027,0.002940,0.001817,0.001107,0.001175,0.013032,-0.005446,0.007877,0.007416,-0.000873,0.000000
1.000000,0.006577,0.005235,0.003860,0.002179,0.001606,0.011854,-0.005296,0.009947,0.006773,-0.000322,0.000000
1.000000,0.000694,0.007507,0.003737,0.002013,0.001849,0.011858,-0.005595,0.009551,0.006872,-0.000697,0.000000
1.000000,0.026766,0.007149,0.006190,0.002769,0.003068,0.011943,-0.006399,0.009643,0.006893,-0.004610,0.000000
1.000000,0.000450,0.009303,0.007101,0.002974,0.003061,0.011922,-0.005728,0.012070,0.007515,-0.006593,0.000000
1.000000,0.005684,0.008034,0.005487,0.003650,0.004094,0.011730,-0.005669,0.012417,0.007094,-0.006794,0.000000
1.000000,-0.003736,0.005971,0.005603,0.003287,0.003357,0.012338,-0.004198,0.009208,0.003336,-0.004425,0.000000
1.000000,-0.002098,0.005413,0.006460,0.003078,0.002502,0.012390,-0.004236,0.009174,0.003662,-0.004079,0.000000
1.000000,-0.031391,-0.006218,0.000465,0.001238,0.001321,0.013216,-0.003585,0.013170,0.008158,-0.006365,0.000000
1.000000,0.016885,-0.002931,0.003186,0.001782,0.001452,0.013605,-0.003262,0.011661,0.006900,-0.003859,0.000000
1.000000,-0.030914,-0.010251,-0.001108,0.000354,0.000368,0.013730,-0.002689,0.013839,0.007454,-0.005104,0.000000
1.000000,-0.026728,-0.014849,-0.004439,-0.000289,-0.000027,0.014723,-0.002491,0.015160,0.009808,-0.005951,0.000000
1.000000,0.010426,-0.012344,-0.003466,0.000136,0.000187,0.014325,-0.001819,0.014583,0.008174,-0.007497,0.000000
1.000000,-0.028978,-0.011862,-0.009040,-0.001425,-0.001167,0.014253,-0.001719,0.014400,0.008072,-0.007483,0.000000
1.000000,0.014189,-0.012401,-0.007666,-0.000283,-0.000573,0.014514,-0.001904,0.014124,0.008657,-0.006502,0.000000
1.000000,0.027316,-0.000755,-0.005503,-0.000008,0.000599,0.014926,-0.003079,0.014080,0.009317,-0.006179,0.000000
1.000000,-0.009579,0.002675,-0.006087,-0.000242,0.000162,0.014921,-0.003149,0.014344,0.009312,-0.006265,0.000000
1.000000,-0.021793,-0.003769,-0.008057,-0.000798,-0.000634,0.014865,-0.003375,0.017480,0.012391,-0.007133,0.000000
1.000000,-0.009804,0.000066,-0.005898,-0.002716,-0.001141,0.014725,-0.003168,0.019338,0.014188,-0.009039,0.000000
1.000000,0.023530,0.001934,-0.005234,-0.001024,-0.000557,0.015458,-0.002499,0.017551,0.015154,-0.008541,0.000000
1.000000,0.007191,-0.002091,-0.001423,-0.001266,-0.000238,0.015621,-0.002936,0.018312,0.016699,-0.009221,0.000000
1.000000,0.015485,0.002922,0.002798,-0.000820,0.000740,0.015794,-0.003469,0.020076,0.018744,-0.007943,0.000000
1.000000,0.008742,0.009029,0.002630,-0.000418,0.000967,0.015960,-0.003515,0.019966,0.019223,-0.007649,0.000000
1.000000,-0.000155,0.010959,0.005512,-0.001764,0.000887,0.015882,-0.003152,0.019348,0.018899,-0.006774,0.000000
1.000000,0.010976,0.008448,0.005191,-0.001238,0.001542,0.016329,-0.001452,0.018234,0.021972,-0.005259,0.000000
1.000000,-0.001539,0.006702,0.002305,-0.001599,0.000763,0.015967,-0.001536,0.018715,0.022065,-0.005785,0.000000
1.000000,0.014978,0.006600,0.004761,-0.000663,0.001426,0.016268,-0.002263,0.018818,0.022689,-0.006963,0.000000
1.000000,-0.010829,0.002686,0.005858,-0.001100,0.001420,0.016432,-0.002362,0.015386,0.017615,-0.006640,0.000000
1.000000,-0.011568,0.000404,0.005681,-0.000108,0.000083,0.016482,-0.002401,0.015627,0.017299,-0.007317,0.000000
1.000000,-0.012803,-0.004352,0.002048,-0.001593,0.000000,0.016031,-0.001602,0.016924,0.016652,-0.010295,0.000000
1.000000,-0.008205,-0.005685,0.000508,-0.000457,-0.000674,0.015834,-0.001820,0.017866,0.018150,-0.011652,0.000000
1.000000,-0.018710,-0.012423,-0.002911,-0.000056,-0.001517,0.016088,-0.002552,0.017666,0.017740,-0.010886,0.000000
1.000000,0.008679,-0.008521,-0.002917,-0.000144,-0.001251,0.016100,-0.002432,0.017778,0.017884,-0.010970,0.000000
1.000000,-0.008518,-0.007911,-0.003754,0.000879,-0.002427,0.016093,-0.002721,0.017767,0.017623,-0.010777,0.000000
1.000000,0.039401,0.002530,-0.000911,0.002140,-0.001129,0.017194,-0.005082,0.016752,0.019277,-0.011351,0.000000
1.000000,-0.005445,0.003081,-0.001302,0.000502,-0.001500,0.016962,-0.004780,0.016875,0.018866,-0.011345,0.000000
1.000000,-0.001015,0.006620,-0.002901,0.000930,-0.001409,0.018115,-0.004012,0.016838,0.021426,-0.012419,0.000000
1.000000,0.003508,0.005586,-0.001468,0.002195,-0.001222,0.019573,-0.005935,0.016409,0.019427,-0.012391,0.000000
1.000000,0.004115,0.008113,0.000101,0.002891,-0.000039,0.019542,-0.006154,0.016184,0.018156,-0.013366,0.000000
1.000000,-0.023125,-0.004392,-0.000931,0.000558,-0.001372,0.019999,-0.005805,0.014215,0.016092,-0.012418,0.000000
1.000000,-0.026030,-0.008509,-0.002714,-0.001103,-0.001210,0.020053,-0.006764,0.014615,0.016938,-0.014120,0.000000
1.000000,0.015346,-0.005237,0.000692,-0.001110,0.000193,0.018795,-0.006343,0.016201,0.015683,-0.012839,0.000000
1.000000,0.016850,-0.002569,0.001509,-0.000704,0.000407,0.018777,-0.006560,0.016892,0.015103,-0.012570,0.000000
1.000000,0.010662,-0.001259,0.003427,-0.000163,0.001728,0.018934,-0.007242,0.017712,0.015349,-0.012108,0.000000
1.000000,0.002959,0.003957,-0.000217,-0.000564,0.001354,0.018210,-0.008376,0.018676,0.014949,-0.011957,0.000000
1.000000,-0.002803,0.008603,0.000047,-0.000628,0.000350,0.018095,-0.008328,0.018971,0.014614,-0.012737,0.000000
1.000000,-0.032811,-0.001029,-0.003133,-0.003017,-0.000424,0.018545,-0.008734,0.022273,0.017660,-0.013187,0.000000
1.000000,-0.065936,-0.017586,-0.010077,-0.005772,-0.001896,0.020730,-0.005880,0.022413,0.022059,-0.012046,0.000000
1.000000,0.025154,-0.014687,-0.007973,-0.003936,-0.000730,0.020951,-0.005689,0.022263,0.022444,-0.012181,0.000000
1.000000,-0.037101,-0.022699,-0.009371,-0.005151,-0.002752,0.020570,-0.005566,0.021395,0.021205,-0.011892,0.000000
1.000000,0.004345,-0.021270,-0.006333,-0.004524,-0.002846,0.020432,-0.004885,0.023712,0.024458,-0.011639,0.000000
1.000000,-0.016437,-0.017995,-0.009512,-0.004410,-0.003910,0.019926,-0.005199,0.024751,0.025867,-0.014096,0.000000
1.000000,0.025758,0.000344,-0.008621,-0.003556,-0.003343,0.020177,-0.006009,0.025434,0.026305,-0.017139,0.000000
1.000000,0.005141,-0.003659,-0.009173,-0.002873,-0.003167,0.020214,-0.006352,0.024994,0.027399,-0.017243,0.000000
1.000000,0.024651,0.008692,-0.007004,-0.003611,-0.002711,0.020139,-0.006081,0.024586,0.027099,-0.017194,0.000000
1.000000,0.016048,0.011032,-0.005119,-0.002536,-0.002125,0.019803,-0.004429,0.022838,0.025514,-0.019921,0.000000
1.000000,-0.022741,0.009771,-0.004112,-0.003622,-0.003382,0.019717,-0.004085,0.023296,0.025281,-0.020623,0.000000
1.000000,0.023234,0.009267,0.004805,-0.002636,-0.002246,0.019638,-0.003803,0.023218,0.025085,-0.020838,0.000000
1.000000,-0.006253,0.006988,0.001664,-0.003154,-0.002069,0.019444,-0.004666,0.022809,0.024718,-0.017804,0.000000
1.000000,-0.019334,-0.001809,0.003441,-0.002965,-0.002287,0.020739,-0.005763,0.023723,0.027665,-0.016522,0.000000
1.000000,0.006960,-0.003627,0.003703,-0.001315,-0.001782,0.021390,-0.006476,0.024394,0.029110,-0.016641,0.000000
1.000000,0.035382,0.007998,0.008885,-0.000314,0.000022,0.021642,-0.006156,0.024295,0.028713,-0.018280,0.000000
1.000000,0.016479,0.006647,0.007957,-0.000332,0.000282,0.021133,-0.006053,0.025583,0.026986,-0.019052,0.000000
1.000000,0.073700,0.022637,0.014813,0.002820,0.003022,0.023351,-0.006245,0.029117,0.039268,-0.008937,0.000000
1.000000,0.016230,0.029750,0.013970,0.003483,0.002250,0.023455,-0.006389,0.029091,0.039343,-0.009472,0.000000
1.000000,-0.013286,0.025701,0.011037,0.002959,0.001988,0.023985,-0.006676,0.028169,0.041188,-0.010967,0.000000
1.000000,-0.018542,0.014916,0.011457,0.003673,0.001404,0.024144,-0.007218,0.029144,0.042669,-0.010818,0.000000
1.000000,0.000599,0.011740,0.009193,0.006999,0.001307,0.023952,-0.007783,0.028363,0.040295,-0.009924,0.000000
1.000000,0.022343,0.001469,0.012053,0.006859,0.001915,0.023692,-0.007265,0.027765,0.039697,-0.008735,0.000000
1.000000,-0.014741,-0.004725,0.012512,0.007977,0.002194,0.022920,-0.006610,0.026758,0.037477,-0.013176,0.000000
1.000000,-0.010900,-0.004248,0.010726,0.007215,0.002699,0.023039,-0.006541,0.027166,0.037442,-0.013682,0.000000
1.000000,0.015049,0.002470,0.008693,0.008789,0.002689,0.021920,-0.005760,0.025611,0.034735,-0.011804,0.000000
1.000000,0.002658,0.002882,0.007311,0.007634,0.002216,0.022143,-0.006167,0.023949,0.033195,-0.010812,0.000000
1.000000,-0.009782,-0.003543,-0.001037,0.006888,0.001534,0.022207,-0.006426,0.024478,0.031309,-0.011575,0.000000
1.000000,-0.025341,-0.005663,-0.005194,0.004388,0.000591,0.022114,-0.005967,0.024299,0.030354,-0.012937,0.000000
1.000000,0.003660,-0.002751,-0.003500,0.003769,0.000806,0.021221,-0.004041,0.023124,0.029417,-0.012349,0.000000
1.000000,-0.004271,-0.006615,-0.002073,0.004692,0.001758,0.021151,-0.003896,0.022978,0.029346,-0.012383,0.000000
1.000000,0.002138,-0.006719,-0.001919,0.003637,0.004027,0.021104,-0.004012,0.021685,0.028772,-0.011936,0.000000
1.000000,0.013032,-0.002156,-0.002850,0.004602,0.003623,0.020048,-0.004814,0.023853,0.025379,-0.014477,0.000000
1.000000,-0.001130,0.002686,-0.001489,0.005512,0.004822,0.019771,-0.004881,0.024223,0.025939,-0.014344,0.000000
1.000000,-0.027428,-0.003532,-0.003141,0.003792,0.003763,0.019641,-0.004622,0.023858,0.025971,-0.014633,0.000000
1.000000,0.020395,0.001401,-0.002607,0.003043,0.004990,0.019879,-0.004687,0.023418,0.026982,-0.014812,0.000000
1.000000,0.003031,0.001580,-0.002570,0.002371,0.004233,0.019796,-0.005027,0.023868,0.027739,-0.015044,0.000000
1.000000,-0.027929,-0.006612,-0.004384,-0.002711,0.003130,0.019922,-0.005549,0.024585,0.028180,-0.015059,0.000000
1.000000,0.016361,-0.003114,-0.000214,-0.002704,0.002854,0.019965,-0.005787,0.024606,0.024873,-0.013830,0.000000
1.000000,0.015495,0.005471,0.000969,-0.001265,0.002836,0.019690,-0.005204,0.024738,0.025337,-0.013147,0.000000
1.000000,-0.008021,-0.000213,0.000594,-0.000739,0.003326,0.019837,-0.005505,0.024878,0.025774,-0.012907,0.000000
1.000000,-0.019177,-0.004654,-0.001537,-0.001728,0.001913,0.019626,-0.005176,0.026570,0.028412,-0.012189,0.000000
1.000000,0.004019,0.001735,-0.002438,-0.002644,0.002255,0.019182,-0.004512,0.026837,0.029675,-0.010584,0.000000
1.000000,0.027991,0.004061,0.000474,-0.000507,0.003832,0.019222,-0.004443,0.027064,0.030244,-0.009157,0.000000
1.000000,-0.011922,-0.001422,0.002024,-0.000559,0.003203,0.019313,-0.004164,0.025727,0.029625,-0.008202,0.000000
1.000000,0.011922,0.002567,0.001177,-0.000715,0.002421,0.019548,-0.004498,0.026150,0.030090,-0.008393,0.000000
1.000000,0.012671,0.008936,0.002141,-0.000214,0.002294,0.019755,-0.004651,0.025945,0.030405,-0.008499,0.000000
1.000000,0.004286,0.008990,0.005362,0.000489,-0.000020,0.018079,-0.003295,0.026523,0.028082,-0.011155,0.000000
1.000000,-0.034588,-0.003526,0.000268,0.000027,-0.001714,0.017302,-0.001892,0.026782,0.026650,-0.009493,0.000000
1.000000,-0.004514,-0.002045,-0.001733,-0.000382,-0.001421,0.017287,-0.001820,0.026663,0.026556,-0.009407,0.000000
1.000000,-0.023275,-0.009084,-0.003259,-0.001332,-0.001579,0.017053,-0.001311,0.026054,0.026649,-0.009596,0.000000
1.000000,0.021433,-0.007332,0.000802,-0.000367,-0.000884,0.016966,-0.000203,0.025083,0.025936,-0.010703,0.000000
1.000000,0.012825,-0.005624,0.001683,-0.000378,-0.001202,0.016875,0.000454,0.025465,0.026558,-0.010390,0.000000
1.000000,-0.006392,0.000015,-0.001755,-0.000641,-0.000923,0.017045,-0.000986,0.026732,0.030545,-0.012378,0.000000
1.000000,0.005177,0.001954,-0.000046,0.000989,-0.000388,0.017045,-0.000172,0.027693,0.032066,-0.009465,0.000000
1.000000,0.027268,0.012062,0.001489,0.001333,0.000020,0.017414,0.001443,0.023745,0.028460,-0.011822,0.000000
1.000000,0.018741,0.011524,0.002096,0.002119,0.000556,0.017431,0.001486,0.024051,0.030032,-0.012595,0.000000
1.000000,0.002173,0.009394,0.001885,0.003624,0.000954,0.017507,0.001235,0.024190,0.030111,-0.013122,0.000000
1.000000,0.015938,0.013860,0.006937,0.003603,0.002330,0.017956,0.001934,0.023120,0.030505,-0.013567,0.000000
1.000000,-0.004569,0.011910,0.006932,0.002599,0.002056,0.017524,0.002421,0.022506,0.028640,-0.013714,0.000000
1.000000,0.017448,0.009947,0.011004,0.003873,0.002780,0.017456,0.002420,0.020746,0.027481,-0.013397,0.000000
1.000000,0.000422,0.006283,0.008903,0.004853,0.002723,0.016417,-0.000217,0.020300,0.024452,-0.014058,0.000000
1.000000,0.008956,0.007639,0.008516,0.005100,0.002587,0.016273,-0.000146,0.020368,0.024709,-0.013790,0.000000
1.000000,0.008048,0.006061,0.009960,0.004102,0.002893,0.015785,-0.000721,0.019585,0.021338,-0.013338,0.000000
1.000000,-0.008187,0.005337,0.008624,0.004289,0.003534,0.015933,-0.001979,0.018711,0.019019,-0.015303,0.000000
1.000000,0.007081,0.003264,0.006605,0.004047,0.003090,0.016003,-0.002070,0.018129,0.018149,-0.011550,0.000000
1.000000,0.008815,0.004943,0.005613,0.003854,0.003283,0.015508,-0.001715,0.017856,0.016094,-0.009928,0.000000
1.000000,0.007922,0.004736,0.006188,0.004036,0.004478,0.015477,-0.000922,0.016235,0.014323,-0.009189,0.000000
1.000000,0.011364,0.005399,0.005730,0.006334,0.004312,0.015206,-0.001117,0.015184,0.012703,-0.006092,0.000000
1.000000,0.005366,0.008110,0.006724,0.006828,0.003974,0.015071,-0.001179,0.015368,0.012665,-0.005706,0.000000
1.000000,-0.005635,0.005567,0.004415,0.007710,0.004054,0.015144,-0.002074,0.014289,0.012502,-0.005281,0.000000
1.000000,-0.031159,-0.002428,0.001257,0.005080,0.003654,0.014099,-0.000998,0.013181,0.005080,-0.002789,0.000000
1.000000,0.022510,0.000489,0.002613,0.005564,0.004271,0.014324,0.000186,0.010896,0.003030,-0.005777,0.000000
1.000000,-0.011054,-0.003994,0.000702,0.005331,0.002969,0.014071,0.000619,0.011094,0.002576,-0.004994,0.000000
1.000000,-0.007092,-0.006486,0.000812,0.004718,0.003130,0.014275,0.001030,0.010828,0.001709,-0.006215,0.000000
1.000000,-0.004224,-0.006204,-0.000319,0.003143,0.002592,0.013613,-0.000057,0.010666,0.001086,-0.003724,0.000000
1.000000,0.009600,0.001948,-0.000240,0.002686,0.002489,0.013749,0.000070,0.010325,0.001657,-0.003964,0.000000
1.000000,0.044299,0.006306,0.003397,0.004792,0.003823,0.013291,-0.003424,0.009101,-0.007697,-0.015727,0.000000
1.000000,0.006293,0.009775,0.002890,0.004310,0.005186,0.013236,-0.003306,0.008594,-0.007898,-0.015135,0.000000
1.000000,0.007421,0.012678,0.003096,0.004910,0.005584,0.013118,-0.002664,0.007866,-0.008181,-0.015730,0.000000
1.000000,-0.006246,0.012273,0.003035,0.003725,0.006151,0.013200,-0.001645,0.005916,-0.010035,-0.015497,0.000000
1.000000,0.019390,0.014232,0.008090,0.004673,0.006083,0.013034,-0.003290,0.006648,-0.008296,-0.014208,0.000000
1.000000,0.014994,0.008370,0.007338,0.004975,0.006156,0.012997,-0.003380,0.006491,-0.008169,-0.013854,0.000000
1.000000,0.001638,0.007440,0.008607,0.004655,0.006423,0.013122,-0.003681,0.006595,-0.007623,-0.010871,0.000000
1.000000,-0.000504,0.005855,0.009266,0.005039,0.006234,0.013099,-0.003469,0.006456,-0.007529,-0.012211,0.000000
1.000000,-0.003281,0.006448,0.009361,0.004521,0.005216,0.013171,-0.002862,0.006673,-0.007021,-0.011897,0.000000
1.000000,-0.011696,0.000230,0.007231,0.003495,0.004201,0.013389,-0.002833,0.006492,-0.006751,-0.012341,0.000000
1.000000,0.001278,-0.002513,0.002929,0.003163,0.004171,0.012553,-0.004058,0.007000,-0.007661,-0.010724,0.000000
1.000000,-0.007178,-0.004276,0.001582,0.002236,0.003401,0.012190,-0.005253,0.006098,-0.007480,-0.006265,0.000000
1.000000,-0.018173,-0.007810,-0.000978,0.001059,0.002947,0.012186,-0.005730,0.006761,-0.008256,-0.006266,0.000000
1.000000,0.012626,-0.004628,0.000910,0.001972,0.002787,0.012149,-0.004974,0.006540,-0.008466,-0.005798,0.000000
1.000000,-0.018143,-0.005918,-0.002844,0.002623,0.002168,0.012819,-0.003499,0.008305,-0.005809,-0.006265,0.000000
1.000000,0.016719,-0.002830,-0.002671,0.002333,0.002426,0.013166,-0.002311,0.006531,-0.004613,-0.002904,0.000000
1.000000,0.014276,0.001461,-0.001407,0.003600,0.002634,0.013248,-0.002716,0.007793,-0.006031,-0.005908,0.000000
1.000000,0.003187,0.005733,-0.001038,0.004114,0.003013,0.012803,-0.001451,0.006974,-0.006311,-0.006273,0.000000
1.000000,-0.005297,0.002149,-0.001240,0.004060,0.002601,0.011592,-0.003522,0.005538,-0.007752,-0.002778,0.000000
1.000000,0.020080,0.009793,0.001938,0.004584,0.002976,0.011798,-0.003229,0.005989,-0.007808,-0.003841,0.000000
1.000000,-0.015038,0.003442,0.000306,0.001617,0.002211,0.011347,-0.004590,0.007621,-0.006432,-0.002995,0.000000
1.000000,-0.000255,0.000536,0.000998,0.001290,0.001823,0.011387,-0.004261,0.007693,-0.006087,-0.003006,0.000000
1.000000,0.008812,0.001661,0.003697,0.001360,0.001938,0.011669,-0.004711,0.007562,-0.005947,-0.002653,0.000000
1.000000,0.013106,0.005341,0.003745,0.002327,0.002563,0.011609,-0.003856,0.008207,-0.005806,-0.003932,0.000000
1.000000,0.005715,0.002468,0.006131,0.001643,0.003792,0.011518,-0.003728,0.007550,-0.005653,-0.003009,0.000000
1.000000,0.001733,0.005822,0.004632,0.000980,0.003100,0.011965,-0.004206,0.008026,-0.006144,-0.005505,0.000000
1.000000,0.011802,0.008234,0.004385,0.001489,0.003861,0.011611,-0.004245,0.008020,-0.006447,-0.006289,0.000000
1.000000,-0.000856,0.006300,0.003980,0.001471,0.004069,0.011115,-0.004135,0.006980,-0.007051,-0.005525,0.000000
1.000000,0.022138,0.008107,0.006724,0.002742,0.004948,0.011601,-0.004689,0.007620,-0.005666,-0.005576,0.000000
1.000000,0.005013,0.007966,0.005217,0.003577,0.004795,0.011480,-0.005083,0.007369,-0.005992,-0.005900,0.000000
1.000000,-0.009329,0.005754,0.005788,0.003047,0.003008,0.012165,-0.006110,0.006570,-0.006470,-0.005080,0.000000
1.000000,-0.003853,0.002623,0.005428,0.003213,0.002669,0.010178,-0.004807,0.008547,-0.007531,-0.010388,0.000000
1.000000,0.011812,0.005156,0.005728,0.004712,0.002816,0.010084,-0.004619,0.007965,-0.008066,-0.009368,0.000000
1.000000,0.023737,0.005476,0.006791,0.005268,0.003815,0.010264,-0.004846,0.006294,-0.008127,-0.008978,0.000000
1.000000,-0.006306,0.003212,0.005589,0.005860,0.002959,0.010207,-0.004827,0.006264,-0.008069,-0.008850,0.000000
1.000000,-0.010836,0.002911,0.004332,0.004482,0.002098,0.010680,-0.005428,0.005384,-0.008105,-0.007398,0.000000
1.000000,-0.000118,0.003658,0.003140,0.003762,0.002039,0.010648,-0.002740,0.004713,-0.006701,-0.003450,0.000000
1.000000,0.018890,0.005073,0.005115,0.004547,0.002686,0.010231,-0.001883,0.003872,-0.007553,-0.000831,0.000000
1.000000,-0.004076,-0.000490,0.002493,0.004609,0.002659,0.010587,-0.002896,0.004191,-0.005553,-0.002003,0.000000
1.000000,0.004076,0.001587,0.002400,0.003808,0.003185,0.010628,-0.002951,0.002928,-0.006537,-0.000103,0.000000
1.000000,-0.007876,0.002179,0.002545,0.004166,0.002880,0.010768,-0.002963,0.002688,-0.006596,0.000423,0.000000
1.000000,-0.008529,0.000497,0.002077,0.003753,0.002835,0.010922,-0.003244,0.002712,-0.006756,0.000335,0.000000
1.000000,0.016870,0.000093,0.002583,0.004156,0.004003,0.011738,-0.003324,0.003201,-0.005196,0.000633,0.000000
1.000000,0.001161,0.001140,0.000325,0.003558,0.003620,0.011474,-0.003161,0.002596,-0.005658,0.001134,0.000000
1.000000,-0.003254,-0.000326,0.000631,0.003110,0.004117,0.011301,-0.003119,0.002318,-0.005902,0.001876,0.000000
1.000000,0.016109,0.004471,0.003325,0.003829,0.004096,0.012033,-0.003778,0.000915,-0.006519,0.002879,0.000000
1.000000,-0.010132,0.004151,0.002324,0.002732,0.003283,0.012063,-0.003951,0.000790,-0.007345,0.002822,0.000000
1.000000,-0.007958,-0.000815,-0.000361,0.002377,0.002911,0.012125,-0.002823,0.002573,-0.005159,0.003338,0.000000
1.000000,0.000350,-0.000977,0.000082,0.001287,0.003100,0.012082,-0.003054,0.002784,-0.005695,0.001279,0.000000
1.000000,0.019286,0.003531,0.001603,0.002001,0.003073,0.011027,-0.002674,0.002095,-0.006463,0.002741,0.000000
1.000000,0.023400,0.004989,0.004730,0.003638,0.004354,0.011614,-0.001056,0.004517,-0.003665,0.000561,0.000000
1.000000,0.011443,0.009304,0.006727,0.004402,0.004744,0.011702,-0.000845,0.005772,-0.002223,-0.002649,0.000000
1.000000,-0.006094,0.009677,0.004431,0.003507,0.004247,0.011731,-0.000827,0.005832,-0.002276,-0.002479,0.000000
1.000000,0.012809,0.012169,0.005596,0.002961,0.004238,0.011361,0.000232,0.005638,-0.001443,-0.001065,0.000000
1.000000,-0.004839,0.007344,0.005437,0.003034,0.003886,0.011793,0.000079,0.008372,0.005599,-0.008070,0.000000
1.000000,0.013144,0.005292,0.005141,0.004233,0.004266,0.012324,-0.000500,0.010273,0.008984,-0.009039,0.000000
1.000000,0.002825,0.003569,0.006436,0.004380,0.003967,0.012465,-0.001863,0.009928,0.008930,-0.010189,0.000000
1.000000,0.004493,0.005686,0.007682,0.003660,0.004145,0.012300,-0.002052,0.010174,0.009284,-0.011916,0.000000
1.000000,-0.036914,-0.004258,0.003955,0.002018,0.002177,0.012113,-0.003886,0.013240,0.006122,-0.018653,0.000000
1.000000,0.016617,0.000033,0.003688,0.002646,0.002564,0.012192,-0.003634,0.012671,0.006214,-0.018704,0.000000
1.000000,0.011018,-0.000392,0.002450,0.003590,0.003242,0.010976,-0.003178,0.010951,0.004892,-0.016267,0.000000
1.000000,-0.005576,-0.002072,0.000748,0.003738,0.003184,0.010759,-0.003065,0.011432,0.004486,-0.017539,0.000000
1.000000,0.014476,-0.000076,0.002805,0.003618,0.003273,0.011233,-0.003789,0.010743,0.004511,-0.015557,0.000000
1.000000,-0.026055,0.002096,-0.001081,0.002257,0.001613,0.010605,-0.001958,0.004670,-0.001200,-0.007870,0.000000
1.000000,-0.010705,-0.003368,-0.001668,0.001885,0.001467,0.010654,-0.001221,0.005595,-0.001982,-0.009544,0.000000
1.000000,0.003246,-0.004923,-0.002657,0.001242,0.001936,0.010527,-0.001288,0.005930,-0.001708,-0.010683,0.000000
1.000000,0.024723,0.001137,-0.000468,0.002984,0.002764,0.010855,0.000472,0.006467,-0.000134,-0.010405,0.000000
1.000000,-0.020597,-0.005878,-0.002977,0.002353,0.001448,0.010976,0.000536,0.007065,-0.000522,-0.010256,0.000000
1.000000,-0.017286,-0.004124,-0.001014,0.001471,0.001008,0.010291,0.001937,0.005841,-0.001839,-0.010190,0.000000
1.000000,-0.029064,-0.007796,-0.005582,-0.000947,-0.000097,0.010743,0.002213,0.007068,-0.000633,-0.012463,0.000000
1.000000,-0.003620,-0.009169,-0.007046,-0.002298,0.000045,0.011380,0.001696,0.003940,0.002171,-0.011157,0.000000
1.000000,0.002862,-0.013541,-0.006202,-0.002727,0.000425,0.011171,0.001672,0.004193,0.001764,-0.011632,0.000000
1.000000,-0.025699,-0.014562,-0.010220,-0.003707,-0.000994,0.010916,0.000069,0.006796,0.002436,-0.018520,0.000000
1.000000,0.014024,-0.008299,-0.006212,-0.003646,-0.000566,0.011067,-0.000991,0.007005,0.003355,-0.020566,0.000000
1.000000,0.001297,-0.002227,-0.005011,-0.003340,-0.000414,0.010220,-0.001134,0.005844,0.001983,-0.021810,0.000000
1.000000,0.009969,0.000491,-0.004339,-0.003498,-0.000619,0.010265,-0.001324,0.005264,0.001966,-0.021244,0.000000
1.000000,-0.016829,-0.003447,-0.008494,-0.004481,-0.000842,0.010149,-0.000975,0.004307,0.000740,-0.020070,0.000000
1.000000,-0.003745,0.000943,-0.006809,-0.004893,-0.000701,0.010376,-0.001063,0.004458,0.001113,-0.019784,0.000000
1.000000,-0.005794,-0.003020,-0.005660,-0.003337,-0.000906,0.011384,0.000129,0.005473,0.000656,-0.018013,0.000000
1.000000,0.014276,-0.000425,-0.001326,-0.003454,-0.001073,0.011313,-0.000053,0.004776,0.000193,-0.016814,0.000000
1.000000,0.004949,-0.001429,-0.000469,-0.003757,-0.001688,0.010510,0.001289,0.002675,-0.002891,-0.015228,0.000000
1.000000,-0.005658,0.000805,-0.001321,-0.003762,-0.002258,0.010813,0.002573,0.003368,-0.002026,-0.014566,0.000000
1.000000,0.000000,0.001554,0.001249,-0.004485,-0.002055,0.011195,0.002113,0.003808,-0.001164,-0.014040,0.000000
1.000000,-0.016447,-0.000576,-0.001798,-0.004005,-0.003030,0.010815,0.001133,0.004501,-0.001056,-0.016711,0.000000
1.000000,-0.008689,-0.005169,-0.002797,-0.003904,-0.003159,0.011035,0.000972,0.004349,-0.000901,-0.015915,0.000000
1.000000,0.000000,-0.006159,-0.003794,-0.004066,-0.003597,0.010923,0.000203,0.004211,-0.001230,-0.016383,0.000000
1.000000,0.002905,-0.004446,-0.001820,-0.005157,-0.003594,0.010742,0.000039,0.003984,-0.001384,-0.016581,0.000000
1.000000,0.009862,-0.002474,-0.000460,-0.003634,-0.003415,0.010692,-0.000219,0.004609,-0.002454,-0.016972,0.000000
1.000000,-0.010466,-0.001278,-0.000927,-0.003293,-0.002534,0.010592,0.000138,0.005268,-0.003434,-0.015939,0.000000
1.000000,-0.032822,-0.006104,-0.005637,-0.003481,-0.004182,0.009075,0.000876,0.008636,-0.001216,-0.025755,0.000000
1.000000,-0.011943,-0.008493,-0.007326,-0.003897,-0.004947,0.009184,0.001761,0.008963,-0.000586,-0.025222,0.000000
1.000000,0.007434,-0.007587,-0.006017,-0.003669,-0.004513,0.008881,0.000934,0.009202,-0.001143,-0.026344,0.000000
1.000000,-0.019393,-0.013438,-0.007956,-0.003354,-0.005642,0.009043,0.000904,0.009173,-0.001143,-0.026021,0.000000
1.000000,0.013350,-0.008675,-0.004976,-0.003387,-0.004329,0.007826,0.003032,0.011286,-0.002967,-0.024550,0.000000
1.000000,0.004159,-0.001279,-0.003692,-0.003244,-0.003833,0.007566,0.003171,0.010116,-0.004476,-0.022732,0.000000
1.000000,0.004518,0.002013,-0.003240,-0.003517,-0.003791,0.006917,0.004237,0.011432,-0.004816,-0.023866,0.000000
1.000000,-0.000626,0.000401,-0.003593,-0.002707,-0.004636,0.006889,0.003998,0.011317,-0.006226,-0.022612,0.000000
1.000000,0.014675,0.007215,-0.003112,-0.001786,-0.003460,0.008194,0.001912,0.010157,-0.005347,-0.021890,0.000000
1.000000,0.020287,0.008602,-0.000036,-0.000482,-0.002208,0.007399,0.001170,0.011111,-0.008878,-0.020691,0.000000
1.000000,0.019171,0.011605,0.005163,-0.000237,-0.000600,0.007256,0.002379,0.012423,-0.009270,-0.020289,0.000000
1.000000,-0.005355,0.009630,0.005822,-0.000752,-0.000658,0.007069,0.001655,0.011892,-0.008928,-0.020614,0.000000
1.000000,0.003811,0.010518,0.005460,-0.000279,-0.000626,0.006934,0.002154,0.012087,-0.009156,-0.019898,0.000000
1.000000,-0.001427,0.007297,0.007256,-0.000350,0.000183,0.006870,0.001792,0.011425,-0.009321,-0.019245,0.000000
1.000000,0.006762,0.004592,0.006597,0.000811,-0.000059,0.006813,0.002349,0.011938,-0.009523,-0.017887,0.000000
1.000000,-0.010758,-0.001393,0.005106,0.000707,-0.000461,0.007260,0.002252,0.012442,-0.008436,-0.019212,0.000000
1.000000,0.002924,0.000262,0.004946,0.000853,-0.000696,0.007133,0.002608,0.012130,-0.008377,-0.018060,0.000000
1.000000,-0.016944,-0.003889,0.003315,-0.000139,-0.000700,0.008214,0.002784,0.012697,-0.005292,-0.019764,0.000000
1.000000,-0.002791,-0.004162,0.001568,-0.000772,-0.000668,0.008773,0.001441,0.010011,-0.006159,-0.021519,0.000000
1.000000,-0.003287,-0.006171,-0.000789,-0.000413,-0.000584,0.008659,0.000851,0.008017,-0.007567,-0.021766,0.000000
1.000000,0.017107,-0.000598,-0.000996,0.002084,-0.000490,0.009617,0.000055,0.007000,-0.007257,-0.023866,0.000000
1.000000,-0.000420,-0.001267,-0.000502,0.002660,-0.000669,0.009147,-0.001798,0.004873,-0.009258,-0.023292,0.000000
1.000000,0.001318,0.002385,-0.000752,0.002354,-0.000436,0.009225,-0.001107,0.006236,-0.008320,-0.021742,0.000000
1.000000,-0.001198,0.002704,-0.000729,0.003264,-0.000476,0.009332,-0.000774,0.007284,-0.007995,-0.021295,0.000000
1.000000,-0.020227,-0.000684,-0.003428,0.001585,-0.000602,0.009364,-0.001012,0.007018,-0.009086,-0.020371,0.000000
1.000000,0.030961,0.002087,0.000744,0.002925,0.000719,0.010505,-0.002048,0.005902,-0.008798,-0.022114,0.000000
1.000000,0.010385,0.004248,0.001490,0.003218,0.001066,0.010585,-0.001952,0.006479,-0.008674,-0.022853,0.000000
1.000000,-0.001527,0.003679,0.003032,0.003173,0.000918,0.010560,-0.001977,0.006147,-0.009415,-0.022347,0.000000
1.000000,-0.006724,0.002573,0.002639,0.002103,0.000365,0.010189,-0.001890,0.006598,-0.009589,-0.024082,0.000000
1.000000,0.001656,0.006950,0.003133,0.001172,0.000769,0.009984,-0.001093,0.004956,-0.007247,-0.021028,0.000000
1.000000,0.014547,0.003667,0.002877,0.000941,0.002348,0.009752,-0.000807,0.006398,-0.007420,-0.021480,0.000000
1.000000,-0.014961,-0.001402,0.001423,0.000460,0.002247,0.009538,-0.000409,0.006338,-0.008142,-0.020933,0.000000
1.000000,-0.021752,-0.005447,-0.000884,-0.000818,0.001275,0.009240,-0.000481,0.006434,-0.008398,-0.021325,0.000000
1.000000,-0.020939,-0.008290,-0.002858,-0.001793,0.001223,0.008640,-0.000304,0.007481,-0.008666,-0.024389,0.000000
1.000000,0.031097,-0.002402,0.002274,-0.000577,0.001815,0.008748,-0.001132,0.007977,-0.011637,-0.022515,0.000000
1.000000,-0.015488,-0.008409,-0.002371,-0.000813,0.001160,0.008759,-0.001070,0.008804,-0.011884,-0.023330,0.000000
1.000000,0.008888,-0.003639,-0.002520,-0.000515,0.001305,0.008131,0.001003,0.010255,-0.009639,-0.022262,0.000000
1.000000,-0.005311,-0.000351,-0.002899,0.000067,0.001149,0.007656,-0.001976,0.008281,-0.012338,-0.022996,0.000000
1.000000,-0.021409,-0.000445,-0.004367,-0.000864,-0.000054,0.007657,-0.002121,0.007860,-0.011430,-0.023551,0.000000
1.000000,0.041420,0.001620,-0.000391,0.001371,0.000651,0.009455,-0.003988,0.006002,-0.011262,-0.018148,0.000000
1.000000,-0.006546,0.003408,-0.002500,0.000188,-0.000206,0.009013,-0.003701,0.005764,-0.011706,-0.016901,0.000000
1.000000,0.033814,0.008393,0.002377,0.001900,0.001099,0.011096,-0.002541,0.012859,-0.009247,-0.020999,0.000000
1.000000,0.018643,0.013184,0.006417,0.002766,0.001594,0.011021,-0.002301,0.013193,-0.009216,-0.020874,0.000000
1.000000,-0.013117,0.014843,0.007199,0.002170,0.001204,0.011178,-0.001508,0.013736,-0.007467,-0.020286,0.000000
1.000000,0.002981,0.007155,0.004387,0.003331,0.001078,0.010753,-0.001494,0.013084,-0.008139,-0.020315,0.000000
1.000000,0.002287,0.008922,0.006165,0.001897,0.001513,0.010978,-0.001863,0.013851,-0.007748,-0.021198,0.000000
1.000000,0.001997,0.002558,0.005476,0.001478,0.001482,0.010680,-0.002485,0.013364,-0.008697,-0.020079,0.000000
1.000000,0.008456,0.000521,0.006852,0.001977,0.002329,0.011029,-0.002230,0.014711,-0.006614,-0.019654,0.000000
1.000000,0.016589,0.006462,0.010652,0.003143,0.002975,0.010870,-0.001155,0.015477,-0.006583,-0.020140,0.000000
1.000000,-0.005909,0.004684,0.005919,0.002764,0.002887,0.010697,-0.001395,0.013617,-0.005790,-0.019046,0.000000
1.000000,0.006576,0.005542,0.007232,0.002366,0.002536,0.010706,-0.001259,0.013878,-0.005932,-0.019205,0.000000
1.000000,-0.011395,0.002863,0.002711,0.002544,0.002170,0.010823,-0.001864,0.013535,-0.006301,-0.019188,0.000000
1.000000,0.013393,0.003851,0.002186,0.004301,0.002573,0.010842,-0.001721,0.013750,-0.006266,-0.019071,0.000000
1.000000,0.019759,0.004485,0.005473,0.006336,0.003271,0.010553,-0.001617,0.008285,-0.007606,-0.014106,0.000000
1.000000,0.013174,0.008301,0.006492,0.005440,0.004385,0.010654,0.000639,0.008461,-0.006096,-0.011849,0.000000
1.000000,0.005509,0.008088,0.006815,0.006490,0.003536,0.010576,0.000882,0.008558,-0.005588,-0.012413,0.000000
1.000000,0.010348,0.012437,0.007650,0.006563,0.003535,0.010685,0.001038,0.009515,-0.004882,-0.013145,0.000000
1.000000,-0.000739,0.009610,0.006730,0.006791,0.003561,0.010585,0.001364,0.009818,-0.005163,-0.012804,0.000000
1.000000,0.011974,0.008053,0.006269,0.008461,0.004185,0.010332,0.000442,0.009142,-0.004724,-0.013108,0.000000
1.000000,-0.005654,0.004288,0.006294,0.006107,0.003941,0.010350,0.001381,0.007484,-0.002209,-0.012813,0.000000
1.000000,0.003040,0.003794,0.005941,0.006586,0.003557,0.012286,0.000642,0.004661,-0.002755,-0.001480,0.000000
1.000000,-0.005985,0.000527,0.006482,0.004596,0.003857,0.012435,-0.000731,0.003654,-0.003266,-0.002168,0.000000
1.000000,-0.004644,-0.000254,0.004678,0.003432,0.004427,0.012517,-0.000028,0.002949,-0.003230,-0.000512,0.000000
1.000000,-0.018365,-0.006321,0.000866,0.003169,0.004513,0.012425,0.000560,0.003446,-0.003766,0.000010,0.000000
1.000000,-0.002590,-0.005709,-0.000711,0.002891,0.003390,0.012851,-0.000196,0.001878,-0.003443,0.001987,0.000000
1.000000,-0.011955,-0.008708,-0.002457,0.002179,0.003508,0.012755,-0.000126,0.002026,-0.003335,0.001793,0.000000
1.000000,0.016483,-0.004214,-0.001844,0.002903,0.003761,0.012667,0.002153,0.001815,-0.001200,0.003203,0.000000
1.000000,0.006860,-0.001913,-0.001084,0.002823,0.004166,0.012464,0.002413,0.001951,-0.001510,0.003156,0.000000
1.000000,0.010202,0.003800,-0.001261,0.002504,0.005220,0.012917,0.001845,0.001426,-0.001593,0.004564,0.000000
1.000000,-0.008708,0.002576,-0.001566,0.002364,0.003549,0.012894,0.003074,0.000731,-0.000364,0.004460,0.000000
1.000000,0.014821,0.007932,-0.000388,0.002776,0.004261,0.013110,0.001862,0.001031,-0.001096,0.005288,0.000000
1.000000,0.006912,0.006017,0.000902,0.003692,0.003365,0.013187,0.003125,0.002395,-0.000086,0.004751,0.000000
1.000000,-0.010702,0.002505,0.000296,0.002487,0.002387,0.013210,0.003327,0.001886,-0.000627,0.005486,0.000000
1.000000,0.010284,0.002522,0.003161,0.002013,0.003167,0.013622,0.002652,0.000827,0.000014,0.006623,0.000000
1.000000,0.002919,0.004847,0.003712,0.001501,0.003165,0.013790,0.001421,-0.000267,0.000732,0.007768,0.000000
1.000000,0.006951,0.003273,0.005602,0.001573,0.003320,0.013954,0.001346,-0.002118,0.001270,0.009957,0.000000
1.000000,0.018945,0.005679,0.005848,0.002002,0.003885,0.014271,0.001256,-0.001782,0.002223,0.009681,0.000000
1.000000,-0.005085,0.006803,0.004654,0.001785,0.003434,0.013706,-0.001406,-0.000978,0.001086,0.006104,0.000000
1.000000,0.009134,0.006573,0.004547,0.001643,0.003185,0.013602,-0.001232,-0.001102,0.000443,0.007295,0.000000
1.000000,0.001313,0.006251,0.005549,0.001992,0.003426,0.013531,-0.001442,-0.001112,0.000053,0.007283,0.000000
1.000000,0.015419,0.007945,0.005609,0.002610,0.003721,0.013580,-0.001892,-0.000331,0.000277,0.007861,0.000000
1.000000,-0.008782,0.002400,0.004040,0.002471,0.003808,0.013484,-0.002122,-0.000369,-0.000095,0.008203,0.000000
1.000000,-0.018615,-0.000306,0.003248,0.001772,0.002741,0.013691,-0.001959,-0.000211,0.000089,0.008519,0.000000
1.000000,0.007933,-0.000546,0.003013,0.003087,0.002347,0.013684,-0.001984,-0.000601,0.000044,0.008597,0.000000
1.000000,0.002428,-0.000323,0.002964,0.003338,0.001988,0.012903,-0.000757,-0.000655,-0.001430,0.013299,0.000000
1.000000,-0.008525,-0.005112,0.001417,0.003509,0.001521,0.011860,0.000511,-0.001068,-0.003155,0.018820,0.000000
1.000000,0.005286,-0.002298,0.000051,0.002950,0.001352,0.011553,0.000459,-0.000400,-0.001780,0.016095,0.000000
1.000000,0.013395,0.004103,0.001899,0.003276,0.001823,0.011786,0.000101,0.000005,-0.001019,0.014569,0.000000
1.000000,0.011439,0.004805,0.002129,0.003338,0.001805,0.011739,-0.000134,0.000135,-0.001479,0.014338,0.000000
1.000000,-0.000990,0.004121,0.001899,0.003724,0.001961,0.011153,0.000403,0.001604,-0.001766,0.012761,0.000000
1.000000,0.014155,0.008657,0.001773,0.003691,0.002331,0.011285,0.000197,0.000460,-0.002338,0.015626,0.000000
1.000000,0.010487,0.009697,0.003699,0.003869,0.002880,0.011179,0.000348,-0.000580,-0.001851,0.016077,0.000000
1.000000,-0.011561,0.004706,0.004405,0.003827,0.002650,0.011505,-0.000158,0.000517,0.001286,0.012108,0.000000
1.000000,0.026421,0.007703,0.006254,0.004633,0.004143,0.011524,-0.001627,0.001954,0.000238,0.013148,0.000000
1.000000,-0.015344,0.004832,0.004476,0.003720,0.003717,0.011423,0.000417,0.003470,0.005543,0.008089,0.000000
1.000000,-0.043855,-0.006770,0.000943,0.001180,0.002654,0.010764,0.001330,0.007300,0.004125,-0.002308,0.000000
1.000000,-0.009944,-0.010856,-0.000580,-0.000264,0.001773,0.010341,0.001230,0.008485,0.000862,-0.001599,0.000000
1.000000,0.015783,-0.005388,-0.000341,0.000779,0.002071,0.010459,0.000239,0.008192,-0.000990,-0.000647,0.000000
1.000000,-0.016395,-0.013951,-0.003124,-0.000498,0.001184,0.010371,-0.000381,0.008653,-0.001263,-0.001995,0.000000
1.000000,-0.009020,-0.012686,-0.003927,-0.001014,0.001174,0.009179,0.001648,0.012411,0.004114,-0.013394,0.000000
1.000000,-0.000618,-0.004039,-0.005405,-0.001816,0.000659,0.009205,0.000990,0.011897,0.003338,-0.012552,0.000000
1.000000,0.022313,0.002412,-0.004222,-0.000261,0.001172,0.007953,0.000859,0.009888,0.003560,-0.013730,0.000000
1.000000,0.043185,0.007893,0.001253,0.002829,0.002969,0.006157,0.003323,0.011238,0.010700,-0.020818,0.000000
1.000000,0.011131,0.013398,-0.000276,0.002989,0.002997,0.006349,0.002335,0.010518,0.008893,-0.018624,0.000000
1.000000,-0.029636,0.009275,-0.001706,0.001385,0.001912,0.006540,0.004989,0.011546,0.011691,-0.020411,0.000000
1.000000,0.005392,0.010477,0.003219,0.002081,0.001860,0.006497,0.005289,0.011360,0.011774,-0.020094,0.000000
1.000000,0.013209,0.008656,0.005534,0.002477,0.001668,0.006451,0.005747,0.012393,0.012459,-0.022777,0.000000
1.000000,0.014655,0.002950,0.005422,0.002540,0.002326,0.006284,0.003962,0.012442,0.011049,-0.024665,0.000000
1.000000,-0.012149,-0.001706,0.005846,0.001361,0.001617,0.006754,0.003878,0.012406,0.011206,-0.022890,0.000000
1.000000,-0.011227,0.001976,0.005625,0.000849,0.001199,0.007337,0.003415,0.012668,0.010965,-0.022321,0.000000
1.000000,-0.002339,0.000430,0.005453,0.000024,0.000607,0.007302,0.003385,0.012919,0.010640,-0.022214,0.000000
1.000000,-0.001953,-0.002603,0.003027,-0.000598,0.000835,0.007003,0.003682,0.013131,0.011096,-0.023340,0.000000
1.000000,-0.004016,-0.006337,-0.001693,-0.000220,0.001321,0.007079,0.003769,0.012586,0.011171,-0.022172,0.000000
1.000000,0.022034,0.000500,-0.000603,-0.000440,0.001791,0.007796,0.004225,0.018502,0.014676,-0.032771,0.000000
1.000000,-0.004619,0.001822,0.001899,0.000097,0.001556,0.008073,0.003393,0.018731,0.014869,-0.033363,0.000000
1.000000,0.002793,0.002848,0.001639,0.002429,0.001934,0.008041,0.003489,0.018739,0.015034,-0.033443,0.000000
1.000000,0.007283,0.004695,0.001046,0.003290,0.002000,0.008227,0.003535,0.020144,0.015869,-0.035874,0.000000
1.000000,0.004383,0.006375,0.000019,0.002720,0.001700,0.008472,0.003319,0.020183,0.015997,-0.035917,0.000000
1.000000,0.013972,0.004762,0.002631,0.004239,0.001784,0.008606,0.003215,0.020388,0.016135,-0.036627,0.000000
1.000000,-0.008189,0.004048,0.002935,0.004280,0.001544,0.008151,0.003371,0.020334,0.014822,-0.036211,0.000000
1.000000,-0.003978,0.002694,0.002771,0.004112,0.000940,0.008192,0.003754,0.020649,0.015232,-0.036337,0.000000
1.000000,0.012073,0.003652,0.004174,0.003600,0.000993,0.008267,0.003991,0.021050,0.015342,-0.036133,0.000000
1.000000,-0.002723,0.002231,0.004303,0.001305,0.001287,0.008181,0.003954,0.021303,0.015515,-0.036737,0.000000
1.000000,0.014281,0.002293,0.003528,0.001462,0.000883,0.007860,0.004190,0.020872,0.016426,-0.037674,0.000000
1.000000,0.013074,0.006546,0.005297,0.003598,0.001830,0.007387,0.004909,0.023163,0.017916,-0.044351,0.000000
1.000000,0.001737,0.007689,0.005191,0.003415,0.003350,0.006537,0.005535,0.023040,0.017294,-0.044186,0.000000
1.000000,-0.007516,0.003771,0.003711,0.002379,0.003431,0.006855,0.004387,0.022645,0.016003,-0.043204,0.000000
1.000000,0.018324,0.007980,0.005106,0.002562,0.003515,0.005888,0.004025,0.022132,0.014766,-0.044318,0.000000
1.000000,0.008366,0.006797,0.004545,0.003588,0.004341,0.005232,0.004163,0.022548,0.014108,-0.045003,0.000000
1.000000,0.021184,0.008419,0.007482,0.005209,0.005348,0.004468,0.004259,0.024322,0.013222,-0.048272,0.000000
1.000000,0.000088,0.008089,0.007889,0.005330,0.005371,0.004286,0.004349,0.023810,0.013546,-0.048415,0.000000
1.000000,-0.014487,0.006695,0.005233,0.004703,0.004144,0.004610,0.003571,0.021421,0.015217,-0.047511,0.000000
1.000000,0.010180,0.005066,0.006523,0.005413,0.003044,0.004484,0.004031,0.023748,0.016558,-0.049349,0.000000
1.000000,0.019709,0.007335,0.007066,0.005297,0.003330,0.004155,0.004236,0.024348,0.016959,-0.051537,0.000000
1.000000,0.018651,0.006828,0.007624,0.006460,0.004940,0.004039,0.005482,0.026691,0.017584,-0.056056,0.000000
1.000000,-0.004843,0.005842,0.006966,0.006078,0.004599,0.004543,0.005846,0.026985,0.017936,-0.054748,0.000000
1.000000,-0.038107,0.001118,0.003907,0.003809,0.002888,0.004869,0.006694,0.029658,0.019206,-0.059423,0.000000
1.000000,0.026198,0.004321,0.004694,0.004900,0.003273,0.005089,0.007116,0.029899,0.019482,-0.059244,0.000000
1.000000,-0.005185,-0.000657,0.003339,0.003942,0.003505,0.005288,0.007104,0.029653,0.019358,-0.058639,0.000000
1.000000,0.003632,-0.003661,0.001584,0.004533,0.004000,0.005376,0.006833,0.029602,0.018944,-0.058041,0.000000
1.000000,0.008767,-0.000939,0.002452,0.005170,0.004370,0.005097,0.006806,0.028345,0.018362,-0.057916,0.000000
1.000000,-0.002656,0.006151,0.003635,0.004434,0.004347,0.004882,0.006695,0.028720,0.018089,-0.058573,0.000000
1.000000,-0.002749,0.000362,0.002342,0.004432,0.004389,0.004509,0.005786,0.025497,0.016337,-0.052753,0.000000
1.000000,0.004464,0.002291,0.000817,0.003942,0.003804,0.004889,0.005825,0.025184,0.016218,-0.050868,0.000000
1.000000,-0.008775,-0.000190,-0.001926,0.002849,0.003665,0.004877,0.006020,0.024927,0.015636,-0.050933,0.000000
1.000000,0.002158,-0.001512,-0.001225,0.002870,0.003644,0.006373,0.005066,0.024743,0.015394,-0.053578,0.000000
1.000000,0.004988,0.000017,0.003084,0.003495,0.003567,0.006851,0.004715,0.024332,0.015092,-0.052831,0.000000
1.000000,-0.013822,-0.002197,-0.000918,0.001888,0.002961,0.007677,0.004655,0.025516,0.016385,-0.055268,0.000000
1.000000,-0.011461,-0.005382,-0.001545,0.000897,0.002113,0.007948,0.004495,0.026048,0.016620,-0.056299,0.000000
1.000000,0.017791,-0.000069,-0.000130,0.000727,0.002979,0.008697,0.004191,0.025773,0.016935,-0.056331,0.000000
1.000000,-0.019640,-0.004429,-0.002970,-0.000259,0.002457,0.008745,0.004134,0.022176,0.017683,-0.056744,0.000000
1.000000,0.031754,0.000924,0.000471,0.002053,0.003113,0.010259,0.002959,0.023519,0.017692,-0.055928,0.000000
1.000000,-0.013325,0.001024,-0.000587,0.000877,0.002759,0.010583,0.002837,0.023120,0.017202,-0.055002,0.000000
1.000000,0.004232,0.004162,-0.000610,0.000104,0.002424,0.010234,0.002760,0.019967,0.016604,-0.052097,0.000000
1.000000,0.000947,0.000794,0.000362,-0.000782,0.002020,0.010741,0.002179,0.019949,0.018248,-0.054981,0.000000
1.000000,0.003438,0.005409,0.000490,-0.000368,0.002077,0.009732,0.002548,0.017781,0.017393,-0.044184,0.000000
1.000000,-0.005161,-0.001974,-0.000525,0.001280,0.002155,0.011457,0.001806,0.011501,0.021805,-0.037423,0.000000
1.000000,0.002154,0.001122,0.001073,0.000078,0.001616,0.010996,0.002838,0.011599,0.023908,-0.037207,0.000000
1.000000,-0.011947,-0.002114,0.001024,-0.000261,0.000939,0.011755,0.003340,0.010775,0.024934,-0.034438,0.000000
1.000000,-0.012532,-0.004810,-0.002008,-0.001069,-0.000185,0.011803,0.003648,0.009718,0.024943,-0.032521,0.000000
1.000000,0.007468,-0.004004,0.000703,-0.001134,0.000061,0.010778,0.005047,0.008570,0.025316,-0.029888,0.000000
1.000000,-0.005354,-0.004042,-0.003008,-0.001269,0.000366,0.010375,0.005892,0.009830,0.024266,-0.028025,0.000000
1.000000,-0.037571,-0.011987,-0.005433,-0.003010,-0.001226,0.014783,0.001913,0.008596,0.014226,-0.025009,0.000000
1.000000,-0.012875,-0.012173,-0.007143,-0.003877,-0.002312,0.013895,0.002193,0.007820,0.015713,-0.030424,0.000000
1.000000,0.034299,-0.002806,-0.003808,-0.001723,-0.001790,0.014682,0.000521,0.008491,0.014933,-0.031186,0.000000
1.000000,-0.028853,-0.010071,-0.007037,-0.003274,-0.002591,0.015566,-0.000543,0.009010,0.015118,-0.032304,0.000000
1.000000,-0.018489,-0.012698,-0.008370,-0.004447,-0.001937,0.015500,-0.000632,0.009281,0.015557,-0.035521,0.000000
1.000000,-0.005454,-0.006274,-0.009131,-0.004029,-0.002992,0.015132,0.000847,0.009151,0.016957,-0.035987,0.000000
1.000000,0.016087,-0.000482,-0.006327,-0.002652,-0.002283,0.015005,-0.000054,0.008038,0.017007,-0.036484,0.000000
1.000000,0.004813,-0.006379,-0.004593,-0.003300,-0.002243,0.014924,-0.000164,0.007918,0.016936,-0.036042,0.000000
1.000000,-0.014978,-0.003604,-0.006837,-0.003067,-0.003035,0.015002,0.000786,0.006573,0.019404,-0.036934,0.000000
1.000000,-0.003192,-0.000545,-0.006621,-0.004815,-0.003053,0.014779,0.001740,0.007260,0.020342,-0.037075,0.000000
1.000000,-0.023018,-0.004057,-0.005166,-0.005299,-0.003728,0.014032,0.002894,0.007520,0.022841,-0.040450,0.000000
1.000000,0.020570,-0.003161,-0.001821,-0.004482,-0.003192,0.013541,0.003038,0.007167,0.023881,-0.042277,0.000000
1.000000,-0.006241,-0.005372,-0.005875,-0.004842,-0.003107,0.012602,0.002201,0.007485,0.022559,-0.044954,0.000000
1.000000,0.015062,0.000636,-0.001484,-0.004261,-0.002677,0.012606,0.002269,0.007461,0.022505,-0.044768,0.000000
1.000000,0.002333,0.001741,0.000598,-0.003886,-0.002765,0.013113,0.001542,0.007388,0.021154,-0.041881,0.000000
1.000000,-0.000839,0.006177,0.001060,-0.004035,-0.002333,0.013169,0.001628,0.007627,0.020939,-0.042222,0.000000
1.000000,-0.008620,0.000339,-0.001411,-0.003869,-0.002238,0.013358,0.001524,0.008037,0.020689,-0.041707,0.000000
1.000000,0.015592,0.004706,-0.000333,-0.002463,-0.002311,0.013825,0.000910,0.008334,0.021569,-0.042193,0.000000
1.000000,0.013435,0.004380,0.002508,-0.002165,-0.001209,0.013654,0.001413,0.008261,0.020727,-0.042004,0.000000
1.000000,-0.007247,0.002464,0.002103,-0.002259,-0.002509,0.013654,0.001465,0.007952,0.020389,-0.041455,0.000000
1.000000,-0.002028,0.002227,0.004202,-0.000482,-0.002132,0.013670,0.001609,0.008286,0.020150,-0.042208,0.000000
1.000000,0.013653,0.006681,0.003510,0.000844,-0.001818,0.013664,0.001313,0.008723,0.019515,-0.042930,0.000000
1.000000,-0.019946,-0.000427,0.002140,-0.001868,-0.002515,0.013945,-0.000417,0.007236,0.018177,-0.039343,0.000000
1.000000,0.000278,-0.003058,0.000661,-0.000411,-0.002620,0.014278,-0.002015,0.006527,0.017175,-0.035752,0.000000
1.000000,-0.029482,-0.007505,-0.002520,-0.000961,-0.003431,0.014582,-0.001726,0.008146,0.016136,-0.036577,0.000000
1.000000,0.005434,-0.006013,-0.001893,-0.000417,-0.003321,0.015489,-0.000520,0.009196,0.017478,-0.034755,0.000000
1.000000,-0.036501,-0.016043,-0.004681,-0.003046,-0.004140,0.017978,-0.001548,0.009126,0.021985,-0.033953,0.000000
1.000000,-0.000987,-0.012251,-0.006339,-0.003336,-0.003755,0.017299,-0.001731,0.008844,0.021576,-0.032932,0.000000
1.000000,0.006886,-0.010930,-0.006994,-0.002243,-0.003774,0.017376,-0.001886,0.008383,0.021130,-0.032638,0.000000
1.000000,0.010240,-0.002986,-0.005245,-0.001571,-0.003255,0.017513,0.000044,0.011356,0.018729,-0.031197,0.000000
1.000000,-0.017028,-0.007478,-0.006745,-0.001272,-0.002570,0.017817,-0.000297,0.011424,0.019264,-0.032419,0.000000
1.000000,0.005806,0.000984,-0.007530,-0.002010,-0.001947,0.018212,-0.000533,0.011446,0.017575,-0.025851,0.000000
1.000000,0.031963,0.007574,-0.002339,-0.000100,-0.002025,0.018639,-0.002520,0.010715,0.018412,-0.028932,0.000000
1.000000,-0.000285,0.006139,-0.002395,-0.000867,-0.001073,0.018542,-0.002830,0.011161,0.018294,-0.030441,0.000000
1.000000,-0.001998,0.003692,0.000353,-0.001084,-0.000523,0.017283,-0.004172,0.008809,0.017668,-0.030316,0.000000
1.000000,-0.005828,0.005932,-0.000773,-0.001333,-0.000535,0.017076,-0.003831,0.006965,0.016971,-0.025905,0.000000
1.000000,-0.025522,-0.000334,0.000325,-0.002178,-0.001922,0.017604,-0.003597,0.007735,0.016089,-0.026008,0.000000
1.000000,-0.008885,-0.008504,-0.000465,-0.003402,-0.002379,0.017700,-0.003490,0.007696,0.016122,-0.025595,0.000000
1.000000,0.012809,-0.005885,0.000127,-0.003433,-0.001453,0.017712,-0.003841,0.006759,0.016205,-0.023824,0.000000
1.000000,-0.017581,-0.009001,-0.002655,-0.003950,-0.001932,0.017130,-0.001850,0.005978,0.018589,-0.022676,0.000000
1.000000,0.015032,-0.004829,0.000551,-0.003097,-0.000664,0.016889,-0.001615,0.006050,0.017719,-0.021267,0.000000
1.000000,-0.000098,0.000255,-0.000039,-0.003785,-0.001353,0.016807,-0.001695,0.006009,0.017762,-0.021590,0.000000
1.000000,-0.028376,-0.003643,-0.006073,-0.004206,-0.002091,0.017353,0.000581,0.006435,0.020839,-0.020692,0.000000
1.000000,-0.022158,-0.010636,-0.008260,-0.005328,-0.003332,0.017449,0.000080,0.005580,0.019083,-0.020067,0.000000
1.000000,0.002166,-0.006687,-0.007844,-0.003745,-0.003337,0.017412,0.000506,0.005774,0.019125,-0.020349,0.000000
1.000000,-0.005061,-0.010706,-0.007767,-0.004270,-0.003478,0.016643,0.001703,0.007658,0.019608,-0.022040,0.000000
1.000000,-0.015444,-0.013775,-0.006760,-0.003217,-0.003705,0.016563,0.002001,0.006988,0.018569,-0.021311,0.000000
1.000000,-0.015687,-0.011237,-0.007440,-0.003952,-0.004748,0.015808,0.001970,0.006807,0.018478,-0.021400,0.000000
1.000000,0.010097,-0.004786,-0.007711,-0.003792,-0.004859,0.015091,0.001565,0.009223,0.017535,-0.022690,0.000000
1.000000,-0.027881,-0.010795,-0.008741,-0.005698,-0.005547,0.014087,0.002056,0.006920,0.016934,-0.023137,0.000000
1.000000,-0.023435,-0.014470,-0.012588,-0.006018,-0.006261,0.014178,0.001112,0.006181,0.014542,-0.023136,0.000000
1.000000,-0.069963,-0.025374,-0.019574,-0.009807,-0.009048,0.015747,-0.003631,0.001296,0.017219,-0.024558,0.000000
1.000000,0.000955,-0.022045,-0.016641,-0.011357,-0.008351,0.016154,-0.002459,0.000488,0.019198,-0.022396,0.000000
1.000000,0.050357,-0.013994,-0.009390,-0.008825,-0.006682,0.014287,0.001824,-0.008760,0.020026,-0.022664,0.000000
1.000000,0.034555,-0.001506,-0.006151,-0.006997,-0.004547,0.014963,0.004985,-0.006653,0.015612,-0.016361,0.000000
1.000000,-0.000548,0.003071,-0.005699,-0.006733,-0.004747,0.015042,0.005686,-0.006475,0.017147,-0.016817,0.000000
1.000000,0.016741,0.020412,-0.002481,-0.004620,-0.002972,0.015016,0.005747,-0.006664,0.017066,-0.016358,0.000000
1.000000,0.034645,0.027150,0.002552,-0.002444,-0.001784,0.015446,0.005690,-0.005548,0.017570,-0.017800,0.000000
1.000000,-0.042111,0.008656,-0.002669,-0.005190,-0.003417,0.016044,0.006306,-0.003194,0.019031,-0.021230,0.000000
1.000000,0.014342,0.004614,0.001554,-0.003594,-0.003281,0.015980,0.006233,-0.003031,0.018887,-0.021560,0.000000
1.000000,-0.014016,0.001920,0.002496,-0.005046,-0.003180,0.016014,0.006875,-0.002432,0.020765,-0.022732,0.000000
1.000000,-0.040664,-0.009561,0.005426,-0.007074,-0.004729,0.016052,0.006377,0.000918,0.018671,-0.026235,0.000000
1.000000,0.034128,-0.009664,0.008743,-0.003949,-0.004657,0.016287,0.007545,-0.000029,0.018942,-0.021635,0.000000
1.000000,0.017657,0.002289,0.005473,-0.001958,-0.004059,0.016231,0.008940,-0.000035,0.020070,-0.017165,0.000000
1.000000,-0.009819,-0.002543,0.001035,-0.002558,-0.004320,0.016356,0.009652,0.000872,0.021251,-0.016732,0.000000
1.000000,0.030226,0.006306,0.004113,-0.000793,-0.003118,0.016740,0.010024,0.001457,0.022189,-0.017033,0.000000
1.000000,-0.018369,0.010765,0.000602,-0.000939,-0.002880,0.016868,0.010221,0.001794,0.022779,-0.017765,0.000000
1.000000,-0.033118,-0.002685,-0.006174,-0.001811,-0.003687,0.017014,0.010037,0.003584,0.021625,-0.020199,0.000000
1.000000,0.062473,0.006279,0.004284,0.000808,-0.002032,0.019176,0.012393,0.003958,0.026072,-0.003535,0.000000
1.000000,0.029427,0.014128,0.005793,0.003673,-0.000465,0.019475,0.012554,0.002991,0.027844,-0.004341,0.000000
1.000000,0.005843,0.009251,0.007779,0.005137,-0.000771,0.019329,0.011530,0.004823,0.023969,-0.005591,0.000000
1.000000,-0.010603,0.010804,0.010785,0.008105,-0.001121,0.019420,0.011960,0.003958,0.023473,-0.001522,0.000000
1.000000,0.002535,0.017935,0.007625,0.008184,-0.000091,0.020488,0.013912,0.001936,0.026838,0.002645,0.000000
1.000000,-0.012124,0.003016,0.004647,0.005060,0.000243,0.019872,0.011754,0.004405,0.022060,-0.001289,0.000000
1.000000,-0.017683,-0.006406,0.003861,0.002448,-0.000418,0.019679,0.012221,0.005805,0.020411,-0.002659,0.000000
1.000000,0.023814,-0.002812,0.003220,0.003666,0.000544,0.019569,0.011609,0.009600,0.019119,-0.007747,0.000000
1.000000,-0.018611,-0.004414,0.003195,0.001899,0.000439,0.019595,0.011982,0.009332,0.019737,-0.007868,0.000000
1.000000,0.013607,-0.002199,0.007868,0.000847,0.001415,0.019586,0.012074,0.007821,0.019394,-0.005610,0.000000
1.000000,0.006735,0.001572,0.002294,0.003289,0.001303,0.019700,0.011520,0.007732,0.021633,-0.006076,0.000000
1.000000,0.011225,0.007354,0.000474,0.003133,0.002607,0.019691,0.011403,0.007795,0.021616,-0.006040,0.000000
1.000000,0.022866,0.007164,0.002176,0.004977,0.004150,0.019823,0.010849,0.007447,0.020198,-0.005169,0.000000
1.000000,-0.021660,0.006555,0.001070,0.005927,0.005760,0.019619,0.009630,0.009579,0.020719,-0.008183,0.000000
1.000000,-0.028734,-0.001913,-0.002056,0.002784,0.004771,0.019484,0.009411,0.012226,0.019794,-0.013875,0.000000
1.000000,-0.027988,-0.008858,-0.003643,0.000502,0.002159,0.019658,0.010103,0.014017,0.022186,-0.016623,0.000000
1.000000,-0.081355,-0.027374,-0.010010,-0.003075,-0.001705,0.019427,0.010414,0.027080,0.014395,-0.028891,0.000000
1.000000,0.005978,-0.030752,-0.011794,-0.004287,-0.001487,0.018682,0.009194,0.027788,0.011063,-0.026022,0.000000
1.000000,0.034475,-0.019525,-0.006485,-0.001645,-0.000896,0.018037,0.008710,0.027444,0.004776,-0.025332,0.000000
1.000000,0.016475,-0.010483,-0.006198,0.000835,-0.001502,0.018263,0.008729,0.027442,0.004283,-0.025597,0.000000
1.000000,0.012987,-0.002288,-0.005573,-0.001639,0.000335,0.018168,0.008518,0.028594,0.004822,-0.027723,0.000000
1.000000,-0.024491,0.009085,-0.009145,-0.004335,-0.000959,0.018600,0.008882,0.028570,0.010822,-0.030833,0.000000
1.000000,-0.028615,0.002166,-0.014293,-0.006058,-0.001446,0.018840,0.009214,0.028323,0.011493,-0.030484,0.000000
1.000000,0.010827,-0.002563,-0.011044,-0.004987,0.000270,0.018666,0.008696,0.027868,0.010474,-0.032992,0.000000
1.000000,-0.026829,-0.011224,-0.010854,-0.006455,-0.001762,0.017325,0.008430,0.025869,0.007882,-0.029038,0.000000
1.000000,0.000806,-0.013660,-0.007974,-0.005808,-0.002323,0.017317,0.008436,0.025890,0.007900,-0.029040,0.000000
1.000000,-0.005657,-0.009894,-0.000404,-0.005207,-0.002185,0.016500,0.008844,0.025239,0.008598,-0.030833,0.000000
1.000000,-0.011997,-0.006570,-0.002202,-0.006998,-0.003592,0.016500,0.008914,0.025064,0.008304,-0.030458,0.000000
1.000000,0.001522,-0.008431,-0.005497,-0.005991,-0.002929,0.016353,0.009187,0.025261,0.008420,-0.029468,0.000000
1.000000,0.064231,0.009781,-0.000722,-0.003460,0.000316,0.016874,0.009257,0.026619,0.008266,-0.032296,0.000000
1.000000,0.014271,0.012474,-0.000593,-0.003083,-0.001291,0.016360,0.010264,0.027051,0.009203,-0.030445,0.000000
1.000000,0.027419,0.019089,0.004598,-0.002273,-0.001358,0.016309,0.009059,0.028353,0.005907,-0.032914,0.000000
1.000000,0.000421,0.021573,0.007501,-0.003396,-0.001538,0.016352,0.008854,0.029130,0.006277,-0.035383,0.000000
1.000000,0.014102,0.024089,0.007829,-0.001608,-0.000715,0.016268,0.008689,0.028743,0.005438,-0.034938,0.000000
1.000000,-0.024783,0.006286,0.008034,-0.001410,-0.001625,0.015978,0.007448,0.030051,0.004672,-0.037533,0.000000
1.000000,-0.002449,0.002942,0.007708,-0.000133,-0.001303,0.015521,0.007104,0.031407,0.004633,-0.040049,0.000000
1.000000,0.005421,-0.001458,0.008816,0.004206,-0.000533,0.015407,0.007051,0.030622,0.003950,-0.039885,0.000000
1.000000,-0.017431,-0.005028,0.008273,0.003035,-0.001908,0.015640,0.006846,0.030289,0.004159,-0.040438,0.000000
1.000000,-0.006819,-0.009212,0.007438,0.000971,-0.001515,0.015215,0.006354,0.031300,0.004102,-0.042949,0.000000
1.000000,0.001845,-0.003887,0.001200,0.000239,-0.001907,0.015237,0.005908,0.031016,0.002761,-0.042014,0.000000
1.000000,-0.062171,-0.015831,-0.006444,-0.003519,-0.004204,0.016566,0.005847,0.032178,0.003533,-0.042639,0.000000
1.000000,-0.028909,-0.022697,-0.012077,-0.003740,-0.005541,0.017668,0.006507,0.031582,0.003472,-0.039292,0.000000
1.000000,-0.006314,-0.020474,-0.012751,-0.002625,-0.006514,0.017055,0.006219,0.032965,0.002781,-0.040639,0.000000
1.000000,0.037528,-0.011604,-0.010408,-0.001290,-0.004541,0.014510,0.009124,0.036749,0.000334,-0.040820,0.000000
1.000000,0.006654,-0.010642,-0.007265,0.000385,-0.003362,0.013645,0.008699,0.036351,-0.001030,-0.042391,0.000000
1.000000,-0.034312,-0.005071,-0.010451,-0.001371,-0.003572,0.015505,0.004625,0.045427,0.003577,-0.043745,0.000000
1.000000,0.006487,0.002009,-0.010344,-0.000764,-0.000644,0.015550,0.003642,0.045889,0.005902,-0.047149,0.000000
1.000000,0.031021,0.009476,-0.005499,0.001387,0.000190,0.014554,0.005028,0.044710,0.008321,-0.049887,0.000000
1.000000,-0.013887,-0.000807,-0.006206,0.000616,-0.001422,0.014545,0.005001,0.044772,0.008561,-0.049566,0.000000
1.000000,0.042757,0.006413,-0.002115,-0.000457,-0.000545,0.015358,0.005094,0.044694,0.008391,-0.049456,0.000000
1.000000,-0.010911,0.011094,0.003011,-0.001717,-0.001342,0.014867,0.005131,0.044523,0.007424,-0.046053,0.000000
1.000000,0.013454,0.012487,0.007248,-0.002415,-0.000077,0.014489,0.005992,0.042899,0.007211,-0.043261,0.000000
1.000000,-0.001990,0.005885,0.007680,-0.002535,0.000810,0.013098,0.004306,0.037605,0.001382,-0.034956,0.000000
1.000000,0.004747,0.009612,0.004402,-0.003003,0.000608,0.012557,0.004679,0.036923,0.002150,-0.037639,0.000000
1.000000,0.016820,0.004424,0.005419,-0.000923,0.002063,0.012533,0.004736,0.036888,0.001590,-0.037448,0.000000
1.000000,0.007230,0.008052,0.009573,-0.000439,0.002277,0.011813,0.005528,0.034870,-0.002003,-0.031409,0.000000
1.000000,-0.054127,-0.005464,0.003512,-0.003416,0.000661,0.012262,0.005429,0.035242,-0.003271,-0.030020,0.000000
1.000000,0.009152,-0.003235,0.001325,-0.002087,0.001366,0.011971,0.005108,0.033498,-0.004884,-0.026388,0.000000
1.000000,0.001349,-0.003915,0.002848,-0.001679,0.001360,0.011723,0.004528,0.033781,-0.005616,-0.027089,0.000000
1.000000,0.038451,0.000411,0.002418,0.000152,0.000501,0.011538,0.004632,0.032586,-0.005724,-0.025784,0.000000
1.000000,0.040147,0.006995,0.007523,0.005267,0.001363,0.010926,0.005158,0.032486,-0.006583,-0.034129,0.000000
1.000000,-0.011697,0.015480,0.005008,0.006128,0.000060,0.010541,0.005033,0.033117,-0.007791,-0.032656,0.000000
1.000000,0.010451,0.015740,0.006252,0.006966,0.000394,0.010271,0.005031,0.033947,-0.007241,-0.033131,0.000000
1.000000,-0.004167,0.014637,0.005361,0.004882,-0.000215,0.010687,0.004887,0.031938,-0.007456,-0.031285,0.000000
1.000000,0.001669,0.007280,0.003846,0.004632,0.000667,0.010639,0.004809,0.031999,-0.007634,-0.031212,0.000000
1.000000,-0.007217,-0.002192,0.002401,0.005987,0.000508,0.010555,0.005219,0.032100,-0.007363,-0.030695,0.000000
1.000000,-0.021862,-0.004225,0.005628,0.004570,-0.000402,0.010457,0.005433,0.032635,-0.007577,-0.031027,0.000000
1.000000,0.017022,-0.002911,0.006414,0.003870,0.000747,0.010545,0.005545,0.031719,-0.007702,-0.029194,0.000000
1.000000,0.022116,0.002346,0.008491,0.005670,0.001711,0.010596,0.004379,0.031259,-0.009699,-0.028433,0.000000
1.000000,-0.004447,0.001122,0.004201,0.003310,0.001502,0.010363,0.004809,0.032459,-0.008327,-0.030118,0.000000
1.000000,-0.012305,0.000105,-0.001044,0.003240,0.003164,0.010406,0.005870,0.031766,-0.008472,-0.029672,0.000000
1.000000,-0.015970,0.001283,-0.001471,0.001769,0.003595,0.010560,0.005615,0.031323,-0.008863,-0.027518,0.000000
1.000000,-0.029427,-0.008006,-0.005459,0.000397,0.002825,0.009873,0.007694,0.033249,-0.006448,-0.030395,0.000000
1.000000,0.009289,-0.010572,-0.004113,0.000624,0.001883,0.010110,0.009044,0.032124,-0.004912,-0.030077,0.000000
1.000000,-0.003487,-0.010380,-0.004629,-0.000391,0.001545,0.010177,0.009374,0.030911,-0.003745,-0.029682,0.000000
1.000000,0.015382,-0.004843,-0.002369,0.000016,0.003202,0.010193,0.008582,0.028252,-0.007743,-0.027235,0.000000
1.000000,-0.031669,-0.007982,-0.003349,0.001139,0.001930,0.011533,0.005432,0.021345,-0.006247,-0.016906,0.000000
1.000000,-0.004559,-0.003009,-0.005508,0.000453,0.000744,0.011801,0.006535,0.021136,-0.005239,-0.018630,0.000000
1.000000,-0.007383,-0.006343,-0.008458,0.000017,0.000961,0.011549,0.006374,0.022014,-0.003348,-0.021033,0.000000
1.000000,0.014602,-0.002726,-0.006553,-0.001176,0.000022,0.011267,0.005926,0.022752,-0.003927,-0.021695,0.000000
1.000000,0.001327,-0.005537,-0.005190,-0.003117,0.000430,0.011283,0.006241,0.022120,-0.004159,-0.021011,0.000000
1.000000,-0.009996,-0.001202,-0.004592,-0.003032,-0.000352,0.011119,0.006902,0.022175,-0.008334,-0.017193,0.000000
1.000000,-0.011451,-0.002580,-0.002795,-0.004127,-0.000667,0.011141,0.005762,0.021511,-0.009080,-0.015785,0.000000
1.000000,-0.009643,-0.003032,-0.004688,-0.004400,-0.001147,0.010840,0.006814,0.022125,-0.010145,-0.016934,0.000000
1.000000,-0.017596,-0.009472,-0.006099,-0.005364,-0.002294,0.010712,0.007311,0.022218,-0.009855,-0.017513,0.000000
1.000000,0.004168,-0.008903,-0.007220,-0.004794,-0.002396,0.010971,0.006532,0.020745,-0.008900,-0.016152,0.000000
1.000000,-0.009753,-0.008855,-0.005028,-0.004189,-0.000917,0.010710,0.004302,0.019753,-0.010611,-0.016042,0.000000
1.000000,-0.003741,-0.007313,-0.004946,-0.005227,-0.001347,0.010727,0.004259,0.019615,-0.011373,-0.015871,0.000000
1.000000,0.028971,0.000410,-0.001311,-0.004884,-0.000426,0.011391,0.001932,0.017573,-0.012923,-0.013387,0.000000
1.000000,-0.012593,0.001410,-0.004031,-0.005292,-0.002127,0.010396,-0.001442,0.015149,-0.013531,-0.006986,0.000000
1.000000,0.043510,0.009279,0.000188,-0.002501,-0.002015,0.012137,-0.005268,0.013433,-0.015159,-0.004982,0.000000
1.000000,-0.012542,0.008721,-0.000067,-0.002330,-0.002043,0.012138,-0.003876,0.012690,-0.012879,-0.005432,0.000000
1.000000,0.012763,0.012022,0.002354,-0.000220,-0.001966,0.012168,-0.003847,0.012843,-0.012635,-0.005538,0.000000
1.000000,-0.018700,0.002487,0.001449,-0.001620,-0.002451,0.012195,-0.004582,0.012024,-0.014541,-0.007188,0.000000
1.000000,-0.001799,0.004646,0.003028,-0.001535,-0.002566,0.012093,-0.003450,0.012110,-0.014303,-0.007513,0.000000
1.000000,0.012528,-0.001550,0.003864,-0.001678,-0.001908,0.011221,-0.004588,0.014025,-0.013655,-0.007352,0.000000
1.000000,0.015443,0.004047,0.006384,0.000678,-0.000665,0.011065,-0.004335,0.014847,-0.013164,-0.009197,0.000000
1.000000,-0.008795,-0.000265,0.005878,0.000466,-0.001525,0.010865,-0.004308,0.015005,-0.013726,-0.007508,0.000000
1.000000,0.017297,0.006935,0.004711,0.001700,-0.001686,0.011021,-0.004529,0.015031,-0.013463,-0.007390,0.000000
1.000000,-0.004896,0.006315,0.005481,0.000725,-0.001701,0.010954,-0.004735,0.014948,-0.013912,-0.006806,0.000000
1.000000,-0.005139,0.002782,0.000616,0.000402,-0.001462,0.009854,-0.004581,0.012869,-0.013531,-0.005339,0.000000
1.000000,0.016202,0.002934,0.003490,0.001712,-0.000390,0.009674,-0.005716,0.011995,-0.013143,-0.003713,0.000000
1.000000,0.023031,0.009299,0.004517,0.003436,0.001359,0.010225,-0.005906,0.011697,-0.011300,-0.004537,0.000000
1.000000,-0.006345,0.004571,0.005753,0.003601,0.000838,0.009254,-0.005318,0.012446,-0.011962,-0.004515,0.000000
1.000000,-0.002443,0.005061,0.005688,0.004358,0.000873,0.009713,-0.004678,0.013152,-0.010722,-0.005120,0.000000
1.000000,0.017603,0.009610,0.006196,0.005030,0.000947,0.009488,-0.005104,0.010616,-0.011505,-0.000054,0.000000
1.000000,0.009152,0.008200,0.005567,0.005975,0.002307,0.009444,-0.005698,0.010510,-0.013194,-0.000165,0.000000
1.000000,-0.019867,-0.000380,0.004460,0.005169,0.001797,0.010323,-0.007821,0.011124,-0.015883,0.000191,0.000000
1.000000,0.018520,0.004593,0.004582,0.004646,0.002661,0.010174,-0.008440,0.010885,-0.014463,0.002470,0.000000
1.000000,0.015431,0.008168,0.006615,0.006048,0.002688,0.009160,-0.009452,0.011351,-0.013345,0.002011,0.000000
1.000000,0.000408,0.004729,0.007169,0.003893,0.002658,0.009133,-0.010691,0.011215,-0.013540,0.000259,0.000000
1.000000,-0.007888,0.001321,0.004760,0.004125,0.002728,0.009244,-0.011067,0.011581,-0.013340,-0.000355,0.000000
1.000000,0.005232,0.006340,0.002980,0.003749,0.003284,0.010275,-0.009619,0.013461,-0.011127,-0.003146,0.000000
1.000000,-0.011836,0.000269,0.002431,0.004092,0.003211,0.010621,-0.010208,0.013622,-0.011097,-0.000122,0.000000
1.000000,0.011426,-0.000532,0.003818,0.004753,0.004178,0.010506,-0.010775,0.013498,-0.009873,-0.000064,0.000000
1.000000,0.005817,0.000550,0.002640,0.004418,0.004233,0.011604,-0.012476,0.015471,-0.007058,-0.008686,0.000000
1.000000,-0.015899,-0.001052,0.000134,0.002851,0.004028,0.010142,-0.012414,0.011681,-0.007835,-0.001934,0.000000
1.000000,0.006595,-0.000779,0.002781,0.003620,0.004373,0.010140,-0.012426,0.011711,-0.007802,-0.001984,0.000000
1.000000,0.011235,0.003835,0.002052,0.003317,0.003782,0.010162,-0.012399,0.011604,-0.007762,-0.001860,0.000000
1.000000,0.012916,0.004133,0.001801,0.004208,0.004632,0.009863,-0.011449,0.009509,-0.006521,0.001024,0.000000
1.000000,-0.007952,0.001379,0.000965,0.004067,0.002917,0.008768,-0.011642,0.009916,-0.008366,-0.006624,0.000000
1.000000,-0.000505,0.004458,0.001703,0.003232,0.003318,0.008520,-0.011484,0.010168,-0.008340,-0.007014,0.000000
1.000000,0.004942,0.004127,0.001674,0.002327,0.003057,0.008485,-0.011515,0.010126,-0.008250,-0.006931,0.000000
1.000000,-0.050028,-0.008125,-0.002145,0.000143,0.002013,0.010286,-0.011171,0.010390,-0.008139,-0.010271,0.000000
1.000000,0.005696,-0.009570,-0.002718,0.000550,0.002263,0.010125,-0.010075,0.009400,-0.008624,-0.007256,0.000000
1.000000,-0.016757,-0.011331,-0.004976,-0.001168,0.001287,0.010448,-0.010826,0.010316,-0.007630,-0.011403,0.000000
1.000000,0.000000,-0.011230,-0.003386,-0.001626,0.000772,0.009637,-0.009916,0.008756,-0.005881,-0.007851,0.000000
1.000000,-0.020421,-0.016302,-0.006088,-0.001653,0.000384,0.009449,-0.010700,0.008203,-0.005866,-0.007026,0.000000
1.000000,0.019458,-0.002405,-0.005265,-0.001607,0.000456,0.009001,-0.010770,0.008211,-0.005326,-0.005557,0.000000
1.000000,-0.019567,-0.007457,-0.008514,-0.003356,-0.000033,0.009035,-0.010767,0.008442,-0.005192,-0.006535,0.000000
1.000000,-0.009543,-0.006015,-0.008673,-0.003854,-0.000180,0.008451,-0.010450,0.007605,-0.005483,-0.003403,0.000000
1.000000,-0.002870,-0.006589,-0.008909,-0.003603,-0.000815,0.008361,-0.010381,0.007909,-0.005707,-0.005324,0.000000
1.000000,0.014594,0.000414,-0.007944,-0.003135,-0.001097,0.009150,-0.011245,0.007797,-0.006964,-0.007672,0.000000
1.000000,-0.016918,-0.006861,-0.004633,-0.003389,-0.001449,0.009314,-0.011084,0.007386,-0.007842,-0.005837,0.000000
1.000000,0.002213,-0.002505,-0.004981,-0.003850,-0.001294,0.009576,-0.010762,0.007754,-0.008344,-0.004356,0.000000
1.000000,0.011322,0.001668,-0.002173,-0.003574,-0.001503,0.009863,-0.010603,0.008669,-0.005925,-0.004472,0.000000
1.000000,-0.013535,-0.000465,-0.003527,-0.003456,-0.002259,0.009758,-0.009579,0.008722,-0.006168,-0.006669,0.000000
1.000000,-0.012374,-0.005858,-0.002722,-0.004405,-0.002010,0.009806,-0.009583,0.008730,-0.006077,-0.006509,0.000000
1.000000,-0.001684,-0.002812,-0.004836,-0.005051,-0.002683,0.009756,-0.009632,0.008006,-0.005827,-0.004679,0.000000
1.000000,0.001684,-0.002917,-0.002711,-0.005612,-0.003141,0.009977,-0.009176,0.007646,-0.005505,-0.004015,0.000000
1.000000,-0.005173,-0.006217,-0.002274,-0.005473,-0.003327,0.010215,-0.009083,0.007837,-0.005346,-0.003187,0.000000
1.000000,0.000789,-0.003352,-0.001908,-0.005409,-0.003038,0.010152,-0.009181,0.007405,-0.006430,-0.003312,0.000000
1.000000,0.011315,0.001386,-0.002236,-0.005090,-0.002835,0.010289,-0.008754,0.007608,-0.006701,-0.002454,0.000000
1.000000,-0.008502,0.000022,-0.001395,-0.003014,-0.002724,0.010414,-0.008808,0.007692,-0.005752,-0.002348,0.000000
1.000000,-0.018482,-0.004011,-0.003464,-0.004223,-0.003721,0.011424,-0.008932,0.008597,-0.006300,-0.002299,0.000000
1.000000,0.025981,0.002220,-0.001998,-0.002086,-0.003049,0.011137,-0.007562,0.011366,-0.009485,-0.009120,0.000000
1.000000,-0.006376,0.000787,-0.001282,-0.002404,-0.002732,0.013269,-0.005528,0.013432,-0.008205,-0.005802,0.000000
1.000000,-0.000224,-0.001521,-0.000067,-0.001395,-0.002959,0.013352,-0.005516,0.013264,-0.008305,-0.005642,0.000000
1.000000,0.014708,0.003121,0.001572,-0.001632,-0.002843,0.012650,-0.004311,0.013947,-0.007607,-0.006155,0.000000
1.000000,0.002651,0.007348,0.001669,-0.000521,-0.003185,0.012509,-0.003853,0.014366,-0.007399,-0.007290,0.000000
1.000000,-0.012432,-0.000335,0.000943,-0.000666,-0.003335,0.010943,-0.002544,0.014528,-0.008591,-0.008849,0.000000
1.000000,-0.003469,0.000247,0.000517,-0.000696,-0.003433,0.011365,-0.003036,0.015886,-0.009065,-0.009114,0.000000
1.000000,0.009593,0.002210,0.000345,-0.000946,-0.003278,0.011406,-0.003001,0.015870,-0.009034,-0.009283,0.000000
1.000000,-0.011837,-0.003099,0.000011,-0.000692,-0.002005,0.011639,-0.002113,0.016070,-0.007700,-0.006890,0.000000
1.000000,-0.002362,-0.004101,0.001623,-0.000920,-0.002274,0.011797,-0.002707,0.016586,-0.008010,-0.006482,0.000000
1.000000,-0.006099,-0.002835,-0.001585,-0.001791,-0.001919,0.012405,-0.001224,0.014970,-0.009494,-0.007938,0.000000
1.000000,-0.002155,-0.002572,-0.001163,-0.001222,-0.001991,0.012653,-0.001327,0.014304,-0.009213,-0.004814,0.000000
1.000000,0.008029,-0.002885,-0.000337,-0.000202,-0.001042,0.012677,-0.001145,0.014233,-0.009263,-0.004709,0.000000
1.000000,-0.005081,-0.001534,-0.002316,-0.000372,-0.001860,0.012346,-0.001206,0.014269,-0.009019,-0.005188,0.000000
1.000000,-0.007841,-0.002630,-0.003365,-0.000848,-0.001469,0.012401,-0.001463,0.014094,-0.009344,-0.005525,0.000000
1.000000,0.004667,-0.000476,-0.001656,-0.000356,-0.000996,0.012534,-0.001088,0.014484,-0.008627,-0.004047,0.000000
1.000000,-0.020768,-0.004199,-0.003386,-0.001434,-0.001592,0.011473,-0.001253,0.014118,-0.008273,-0.005816,0.000000
1.000000,0.014960,-0.002813,-0.002849,-0.001252,-0.001580,0.010553,-0.000800,0.013169,-0.010814,-0.008083,0.000000
1.000000,-0.020541,-0.005905,-0.003719,-0.001854,-0.001701,0.009610,0.000746,0.013621,-0.011861,-0.010324,0.000000
1.000000,-0.001167,-0.004570,-0.003600,-0.000988,-0.001814,0.009600,0.000411,0.013756,-0.012023,-0.010351,0.000000
1.000000,-0.006793,-0.006862,-0.003669,-0.002627,-0.002417,0.009143,0.002103,0.014511,-0.010346,-0.012242,0.000000
1.000000,0.018975,0.001087,-0.001556,-0.001359,-0.001334,0.009631,0.001736,0.014269,-0.006258,-0.012233,0.000000
1.000000,-0.026051,-0.007115,-0.004964,-0.002651,-0.001790,0.009739,0.003170,0.015943,-0.006183,-0.014104,0.000000
1.000000,0.009541,-0.001099,-0.003502,-0.002909,-0.001415,0.009430,0.003232,0.015596,-0.006690,-0.015516,0.000000
1.000000,-0.008950,-0.002656,-0.003613,-0.003489,-0.001770,0.008792,0.003211,0.016524,-0.005913,-0.017524,0.000000
1.000000,-0.003911,-0.002079,-0.004470,-0.003063,-0.001728,0.008601,0.003473,0.016847,-0.005782,-0.017390,0.000000
1.000000,0.012040,-0.003466,-0.001190,-0.002288,-0.001353,0.008931,0.003734,0.017115,-0.005981,-0.017673,0.000000
1.000000,-0.023505,-0.002957,-0.005036,-0.003943,-0.002513,0.009416,0.006284,0.016941,-0.003728,-0.013623,0.000000
1.000000,-0.010263,-0.006918,-0.004008,-0.003864,-0.002572,0.009458,0.006874,0.017571,-0.002945,-0.012127,0.000000
1.000000,-0.023328,-0.009794,-0.006225,-0.004912,-0.002734,0.009625,0.008460,0.017788,-0.001561,-0.009615,0.000000
1.000000,-0.032446,-0.015501,-0.008790,-0.006229,-0.004681,0.009768,0.009057,0.018994,-0.002426,-0.009451,0.000000
1.000000,-0.007729,-0.019454,-0.011460,-0.006508,-0.004726,0.009862,0.009222,0.019542,0.000396,-0.012139,0.000000
1.000000,-0.016165,-0.017986,-0.010472,-0.007718,-0.005258,0.009945,0.009155,0.017139,-0.000709,-0.009533,0.000000
1.000000,0.003018,-0.015330,-0.011124,-0.007313,-0.005647,0.009485,0.008089,0.014898,-0.002912,-0.005748,0.000000
1.000000,-0.015316,-0.013728,-0.011761,-0.007687,-0.006246,0.009229,0.010120,0.012880,0.002268,-0.006152,0.000000
1.000000,-0.026560,-0.012550,-0.014025,-0.009248,-0.006717,0.009358,0.011781,0.012124,0.002911,-0.009377,0.000000
1.000000,0.048797,-0.001245,-0.010350,-0.005770,-0.004975,0.012074,0.008919,0.010855,-0.000654,0.000886,0.000000
1.000000,0.011514,0.004291,-0.006848,-0.005942,-0.004911,0.012174,0.009013,0.011195,0.000186,0.000615,0.000000
1.000000,0.010238,0.005735,-0.004798,-0.004403,-0.004175,0.011035,0.008485,0.014942,-0.000078,0.000122,0.000000
1.000000,-0.017338,0.005330,-0.004199,-0.005212,-0.004674,0.011220,0.007510,0.016630,0.000177,-0.001914,0.000000
1.000000,-0.009764,0.008689,-0.001930,-0.005360,-0.004796,0.011435,0.007130,0.014875,-0.001988,0.001721,0.000000
1.000000,0.003917,-0.000286,-0.000766,-0.006113,-0.004594,0.011828,0.006362,0.014316,-0.003703,0.003935,0.000000
1.000000,-0.008506,-0.004291,-0.000000,-0.005236,-0.005145,0.011393,0.008265,0.014699,-0.002781,0.003562,0.000000
1.000000,0.020681,-0.002202,0.001766,-0.004679,-0.004287,0.011563,0.008339,0.015434,-0.001219,0.002959,0.000000
1.000000,-0.051781,-0.009091,-0.001880,-0.006820,-0.005751,0.012087,0.009453,0.017810,-0.003843,0.001086,0.000000
1.000000,0.033463,-0.000445,0.004122,-0.004952,-0.004791,0.012706,0.009478,0.018850,-0.002167,-0.001610,0.000000
1.000000,0.013414,0.001454,0.000584,-0.004883,-0.003652,0.011982,0.009814,0.020451,-0.001056,-0.004494,0.000000
1.000000,0.033457,0.009847,0.002778,-0.002035,-0.003035,0.012159,0.008141,0.018604,-0.003912,-0.001043,0.000000
1.000000,-0.003133,0.005084,0.001441,-0.001678,-0.002455,0.012176,0.007812,0.019523,-0.004720,-0.001732,0.000000
1.000000,0.003133,0.016067,0.003488,-0.000355,-0.002312,0.011937,0.007598,0.018849,-0.004151,-0.001793,0.000000
1.000000,0.001000,0.009574,0.004565,0.001317,-0.002052,0.011880,0.008163,0.018066,-0.004635,-0.000839,0.000000
1.000000,0.004987,0.007889,0.004672,0.001953,-0.002518,0.011798,0.007570,0.018455,-0.004338,-0.001405,0.000000
1.000000,-0.042424,-0.007287,0.001280,0.000640,-0.003064,0.012596,0.008240,0.019482,-0.002370,-0.003138,0.000000
1.000000,-0.004421,-0.007545,-0.001231,0.000268,-0.003529,0.011832,0.009268,0.019374,0.000105,-0.002674,0.000000
1.000000,-0.024673,-0.013106,0.001480,-0.000200,-0.004054,0.012102,0.008722,0.019843,0.001196,-0.004443,0.000000
1.000000,-0.077752,-0.028857,-0.009641,-0.002760,-0.006515,0.013940,0.007464,0.020694,-0.002282,-0.001541,0.000000
1.000000,-0.013080,-0.032470,-0.012291,-0.005853,-0.007352,0.013609,0.007914,0.020860,-0.002397,-0.003217,0.000000
1.000000,0.037751,-0.016435,-0.011861,-0.004542,-0.005310,0.013784,0.007576,0.020829,-0.002220,-0.003572,0.000000
1.000000,0.065427,-0.002465,-0.005005,-0.001782,-0.002787,0.014782,0.007993,0.022246,-0.004446,-0.002940,0.000000
1.000000,0.019857,0.006441,-0.003333,0.000078,-0.001348,0.014824,0.008482,0.022379,-0.004176,-0.003074,0.000000
1.000000,0.012852,0.024562,-0.002148,0.001208,0.000162,0.014837,0.006312,0.019590,-0.004541,0.000710,0.000000
1.000000,-0.029679,0.021242,-0.005614,-0.000471,-0.000570,0.014088,0.005871,0.018720,-0.005282,0.001184,0.000000
1.000000,0.021987,0.018089,0.000827,0.001053,0.000702,0.014367,0.006469,0.018455,-0.003323,-0.000643,0.000000
1.000000,-0.003351,0.004333,0.000934,-0.000148,0.000490,0.014176,0.007165,0.019047,-0.003123,-0.004340,0.000000
1.000000,-0.007257,-0.001089,0.002676,0.002078,0.000759,0.013908,0.008329,0.019425,-0.001955,-0.007013,0.000000
1.000000,0.009964,-0.001667,0.011447,0.000903,0.001976,0.013481,0.008704,0.020144,-0.001326,-0.008093,0.000000
1.000000,-0.009444,0.002380,0.011811,-0.000240,0.000035,0.013433,0.008802,0.020239,-0.000993,-0.008346,0.000000
1.000000,0.014582,0.000899,0.009494,-0.001184,0.000137,0.013345,0.008827,0.020773,-0.001158,-0.010147,0.000000
1.000000,-0.011726,-0.000776,0.001779,-0.001613,-0.000595,0.013330,0.008951,0.021062,-0.001046,-0.010384,0.000000
1.000000,-0.009376,-0.001200,-0.001145,-0.002239,-0.000330,0.013547,0.009171,0.020594,-0.001160,-0.009661,0.000000
1.000000,0.010672,-0.001059,-0.001363,-0.001755,0.000351,0.013360,0.009278,0.020548,-0.000792,-0.010347,0.000000
1.000000,0.034229,0.007676,0.005028,-0.000293,0.001362,0.013763,0.010169,0.021076,0.000127,-0.010629,0.000000
1.000000,-0.003509,0.004058,0.002478,0.001653,0.001528,0.013962,0.011137,0.019366,0.000123,-0.009284,0.000000
1.000000,-0.043619,-0.002321,-0.001548,-0.000307,-0.000615,0.014255,0.011302,0.019477,0.000887,-0.008587,0.000000
1.000000,0.003404,0.000235,-0.000482,0.001097,0.001225,0.014369,0.011859,0.017914,0.000339,-0.006844,0.000000
1.000000,-0.017135,-0.005326,-0.003192,0.004127,-0.000462,0.014333,0.011821,0.017923,0.000372,-0.006922,0.000000
1.000000,-0.029410,-0.018054,-0.005189,0.003311,-0.001890,0.014929,0.012776,0.017265,0.001078,-0.005185,0.000000
1.000000,0.003008,-0.016751,-0.006346,0.001574,-0.002905,0.014931,0.012026,0.016628,0.001094,-0.002851,0.000000
1.000000,-0.006436,-0.009314,-0.005817,-0.002019,-0.003015,0.015283,0.012253,0.014685,0.001245,-0.000732,0.000000
1.000000,-0.047260,-0.019447,-0.009606,-0.005375,-0.004694,0.015855,0.012746,0.014186,-0.000163,-0.000644,0.000000
1.000000,0.010032,-0.014013,-0.009670,-0.005516,-0.004393,0.015943,0.012723,0.014115,0.000905,-0.000070,0.000000
1.000000,0.037365,-0.000658,-0.009356,-0.002164,-0.003314,0.016000,0.011940,0.014794,-0.003473,0.000179,0.000000
1.000000,0.010793,0.000899,-0.007926,-0.002724,-0.001540,0.015911,0.011224,0.014756,-0.004562,0.000452,0.000000
1.000000,0.046075,0.011401,0.001044,-0.000252,0.000143,0.016734,0.011381,0.012243,-0.004969,0.005927,0.000000
1.000000,0.045534,0.029960,0.005257,0.002387,0.002483,0.016883,0.010768,0.011028,-0.006265,0.007752,0.000000
1.000000,0.026792,0.033312,0.009649,0.003229,0.005968,0.017124,0.011324,0.011569,-0.005369,0.007233,0.000000
1.000000,0.011164,0.028072,0.013707,0.004259,0.006776,0.016841,0.010540,0.011804,-0.005614,0.006631,0.000000
1.000000,0.038293,0.033572,0.017235,0.005445,0.006794,0.016873,0.010147,0.011827,-0.006021,0.007072,0.000000
1.000000,0.002983,0.024953,0.018177,0.006180,0.004713,0.016951,0.010080,0.011164,-0.005795,0.006784,0.000000
1.000000,-0.014654,0.012915,0.021438,0.005916,0.003562,0.016866,0.009971,0.011386,-0.006268,0.005837,0.000000
1.000000,-0.008756,0.005806,0.019559,0.004945,0.002842,0.016778,0.009240,0.010586,-0.005025,0.005897,0.000000
1.000000,0.005846,0.004742,0.016407,0.003525,0.004026,0.016667,0.008253,0.010260,-0.007661,0.008025,0.000000
1.000000,0.015730,0.000230,0.016901,0.004487,0.003818,0.016391,0.007896,0.009536,-0.005535,0.009063,0.000000
1.000000,0.004123,0.000458,0.012705,0.006875,0.004067,0.016533,0.008640,0.010024,-0.004706,0.008041,0.000000
1.000000,-0.031225,-0.002857,0.005029,0.005143,0.003268,0.016645,0.008387,0.010297,-0.006074,0.009770,0.000000
1.000000,0.000707,-0.000964,0.002421,0.006035,0.002959,0.016508,0.006959,0.008813,-0.007605,0.013221,0.000000
1.000000,-0.012926,-0.004718,0.000012,0.006859,0.002843,0.016050,0.007504,0.009666,-0.006487,0.010314,0.000000
1.000000,0.023825,-0.003099,-0.001435,0.007900,0.003151,0.016024,0.007938,0.009891,-0.005640,0.009301,0.000000
1.000000,-0.004322,-0.004788,-0.002165,0.008006,0.003398,0.015894,0.007149,0.009677,-0.007494,0.011504,0.000000
1.000000,-0.024169,-0.003377,-0.003117,0.009160,0.002905,0.016043,0.008094,0.009562,-0.006474,0.011427,0.000000
1.000000,-0.008309,-0.005180,-0.003072,0.008243,0.002272,0.015677,0.006448,0.009315,-0.008704,0.011375,0.000000
1.000000,0.024958,0.002397,-0.001161,0.007623,0.001963,0.015442,0.005036,0.007936,-0.007398,0.013085,0.000000
1.000000,0.008573,-0.000654,-0.001877,0.007512,0.002366,0.015364,0.004510,0.007789,-0.006681,0.012205,0.000000
1.000000,0.003851,0.000981,-0.001904,0.005401,0.003948,0.015564,0.005139,0.006317,-0.005027,0.012692,0.000000
1.000000,0.002559,0.006327,0.001475,0.003252,0.003920,0.015217,0.003628,0.004666,-0.002443,0.014180,0.000000
1.000000,0.027277,0.013444,0.004132,0.003276,0.005401,0.015183,0.004103,0.004916,-0.002039,0.013218,0.000000
1.000000,-0.022640,0.003924,0.003160,0.001586,0.005626,0.015654,0.004281,0.003653,-0.000976,0.015759,0.000000
1.000000,0.000000,0.002209,0.000778,-0.000329,0.005526,0.015700,0.004901,0.004148,0.000146,0.014746,0.000000
1.000000,-0.013975,-0.001356,-0.000187,-0.001176,0.005275,0.015740,0.004256,0.003266,0.001059,0.015965,0.000000
1.000000,0.001172,-0.001633,0.002347,-0.000385,0.006889,0.015424,0.003184,0.003606,-0.001809,0.016535,0.000000
1.000000,0.014074,-0.004274,0.004585,0.000756,0.007024,0.015447,0.003133,0.003514,-0.002056,0.016874,0.000000
1.000000,-0.038380,-0.007422,-0.001749,-0.001455,0.004499,0.015688,0.004701,0.004123,-0.000483,0.014925,0.000000
1.000000,-0.019757,-0.011373,-0.004582,-0.003229,0.003481,0.015224,0.003825,0.003854,-0.001418,0.014874,0.000000
1.000000,0.006832,-0.007212,-0.004284,-0.003094,0.002173,0.015411,0.003557,0.004030,-0.003991,0.015035,0.000000
1.000000,0.030414,-0.001363,-0.001498,-0.000012,0.001669,0.015497,0.003506,0.004362,-0.003829,0.014484,0.000000
1.000000,-0.021578,-0.008494,-0.006384,-0.001126,0.000056,0.014786,0.004077,0.004325,-0.002603,0.014130,0.000000
1.000000,0.025815,0.004345,-0.001538,0.000811,0.000545,0.015069,0.003781,0.004233,-0.002649,0.015056,0.000000
1.000000,-0.029800,0.002337,-0.004518,-0.001870,-0.001725,0.015235,0.003759,0.004942,-0.003154,0.013724,0.000000
1.000000,-0.000242,0.000922,-0.003145,-0.001666,-0.001833,0.014290,0.005031,0.003776,-0.001526,0.014719,0.000000
1.000000,-0.000726,-0.005306,-0.003335,-0.000494,-0.001368,0.014289,0.004513,0.003792,-0.001484,0.014524,0.000000
1.000000,0.030651,0.005139,-0.001677,0.001454,-0.000055,0.014428,0.005259,0.003463,-0.000380,0.014553,0.000000
1.000000,-0.019091,-0.003842,0.000252,-0.000749,-0.000886,0.015132,0.003908,0.004540,-0.000736,0.013335,0.000000
1.000000,-0.018243,-0.001530,0.000403,-0.002089,-0.002018,0.014874,0.003860,0.005208,-0.001082,0.013088,0.000000
1.000000,0.017045,0.001927,0.001424,-0.001430,-0.001588,0.014673,0.003884,0.005838,-0.002160,0.014911,0.000000
1.000000,0.007404,0.003553,-0.000877,-0.001187,-0.000300,0.015271,0.002717,0.005676,-0.003133,0.017169,0.000000
1.000000,-0.038693,-0.010316,-0.002588,-0.004486,-0.001613,0.016701,0.001649,0.005867,-0.003124,0.016363,0.000000
1.000000,0.001606,-0.006176,-0.005009,-0.003274,-0.001129,0.016434,0.001425,0.005807,-0.003261,0.017419,0.000000
1.000000,-0.006193,-0.003766,-0.002648,-0.003583,-0.002130,0.015368,0.002935,0.005592,-0.004236,0.021745,0.000000
1.000000,-0.054903,-0.018156,-0.008114,-0.005630,-0.003816,0.015614,0.003602,0.007455,-0.006831,0.019662,0.000000
1.000000,0.012003,-0.017236,-0.006841,-0.005088,-0.002610,0.014954,0.004656,0.006906,-0.005273,0.014750,0.000000
1.000000,0.016336,-0.006230,-0.008273,-0.004975,-0.001788,0.014962,0.004594,0.006435,-0.004843,0.017382,0.000000
1.000000,-0.002555,-0.007062,-0.006619,-0.003184,-0.002705,0.014636,0.004298,0.006300,-0.005804,0.017410,0.000000
1.000000,-0.042993,-0.014423,-0.009094,-0.004346,-0.004424,0.015217,0.003851,0.007326,-0.005695,0.016027,0.000000
1.000000,0.025965,0.001751,-0.008202,-0.003389,-0.003687,0.015096,0.002265,0.007743,-0.006017,0.012681,0.000000
1.000000,0.005708,0.000492,-0.008372,-0.004624,-0.003582,0.015011,0.002476,0.007384,-0.003103,0.011763,0.000000
1.000000,-0.019596,-0.006694,-0.006462,-0.004525,-0.005145,0.014128,0.002663,0.008846,-0.003128,0.010007,0.000000
1.000000,-0.033538,-0.012891,-0.009977,-0.007493,-0.005508,0.014240,0.002295,0.009377,-0.003036,0.008351,0.000000
1.000000,-0.025843,-0.009460,-0.011942,-0.007295,-0.006369,0.014332,0.002178,0.009330,-0.002937,0.008347,0.000000
1.000000,-0.016658,-0.017985,-0.008117,-0.008116,-0.006459,0.014037,0.001017,0.011876,-0.002108,0.006280,0.000000
1.000000,-0.006283,-0.020383,-0.009946,-0.008393,-0.006707,0.012252,0.001441,0.013809,-0.000724,0.002946,0.000000
1.000000,0.054090,-0.005646,-0.006170,-0.007221,-0.005373,0.012828,0.001696,0.014538,-0.000517,0.003070,0.000000
1.000000,-0.003671,0.000327,-0.006282,-0.006450,-0.004216,0.012066,0.002832,0.015050,0.001271,0.002708,0.000000
1.000000,-0.040726,-0.002649,-0.006055,-0.007575,-0.004915,0.012165,0.004100,0.015272,0.001863,0.002861,0.000000
1.000000,0.008476,0.002377,-0.007804,-0.008003,-0.004861,0.010559,0.003839,0.019398,0.002879,-0.002985,0.000000
1.000000,-0.006775,0.002279,-0.009052,-0.008712,-0.006100,0.009988,0.003393,0.019442,0.002466,-0.004218,0.000000
1.000000,0.002546,-0.008030,-0.006838,-0.006650,-0.005296,0.009793,0.003218,0.019478,0.002018,-0.004277,0.000000
1.000000,-0.015804,-0.010457,-0.005065,-0.007521,-0.006683,0.009807,0.003103,0.019514,0.001876,-0.004833,0.000000
1.000000,0.006437,-0.001024,-0.001837,-0.006889,-0.005475,0.009280,0.002089,0.019198,-0.000298,-0.006765,0.000000
1.000000,-0.040893,-0.010898,-0.004260,-0.006189,-0.006831,0.009661,0.001413,0.021021,-0.001430,-0.007431,0.000000
1.000000,-0.028018,-0.015147,-0.006434,-0.008190,-0.007740,0.009634,0.001194,0.021265,-0.001236,-0.008128,0.000000
1.000000,0.000916,-0.015472,-0.011751,-0.008961,-0.008731,0.009175,0.000529,0.022601,-0.000581,-0.009385,0.000000
1.000000,-0.028642,-0.018040,-0.014248,-0.010265,-0.009050,0.008868,0.001720,0.022609,-0.000633,-0.013500,0.000000
1.000000,-0.011849,-0.021697,-0.011361,-0.008708,-0.008837,0.008832,0.001783,0.022715,-0.000543,-0.013464,0.000000
1.000000,0.019672,-0.009584,-0.010241,-0.009022,-0.008749,0.007270,0.001284,0.025447,-0.000020,-0.013722,0.000000
1.000000,0.016843,-0.000612,-0.007879,-0.008466,-0.008434,0.007478,0.001525,0.024754,-0.000026,-0.014741,0.000000
1.000000,-0.035721,-0.007939,-0.011706,-0.009272,-0.008335,0.007273,0.002488,0.029672,0.004126,-0.020892,0.000000
1.000000,-0.032112,-0.008634,-0.013337,-0.009201,-0.009459,0.007052,0.004187,0.030192,0.004626,-0.022825,0.000000
1.000000,-0.012209,-0.008705,-0.015201,-0.008519,-0.009660,0.005609,0.006777,0.031320,0.007656,-0.030488,0.000000
1.000000,0.056633,-0.001313,-0.005449,-0.004855,-0.005942,0.008609,0.006103,0.025624,0.010129,-0.015124,0.000000
1.000000,0.034989,0.002316,0.000852,-0.002791,-0.005176,0.008919,0.006006,0.025877,0.010034,-0.016882,0.000000
1.000000,-0.069458,-0.004432,-0.006186,-0.008968,-0.008036,0.009691,0.008879,0.029957,0.014230,-0.017962,0.000000
1.000000,0.069610,0.015913,0.003640,-0.005304,-0.005630,0.010257,0.011288,0.032656,0.016319,-0.019054,0.000000
1.000000,0.000606,0.018476,0.004885,-0.003238,-0.004177,0.010611,0.012031,0.030506,0.017045,-0.018677,0.000000
1.000000,0.038015,0.014752,0.006719,-0.001761,-0.003775,0.010566,0.011657,0.030869,0.015950,-0.018692,0.000000
1.000000,0.034232,0.014601,0.008458,0.000289,-0.002824,0.010534,0.011850,0.030625,0.014887,-0.018267,0.000000
1.000000,-0.027552,0.022982,0.009275,-0.001215,-0.003090,0.010556,0.011488,0.030202,0.014232,-0.017308,0.001000
1.000000,-0.028332,0.003394,0.009653,-0.001842,-0.002916,0.010108,0.011542,0.030506,0.013247,-0.019085,0.001000
1.000000,0.044128,0.012098,0.015287,0.000043,-0.000584,0.010389,0.011873,0.031608,0.015465,-0.019403,0.001000
1.000000,-0.025248,-0.000554,0.007099,0.000825,-0.000870,0.010193,0.011767,0.030364,0.009320,-0.016369,0.001000
1.000000,-0.020370,-0.011475,0.001563,0.001207,-0.001340,0.010876,0.012574,0.028623,0.009266,-0.017681,0.001000
1.000000,0.020224,-0.001920,0.010531,0.002173,-0.002469,0.010801,0.013121,0.029125,0.012074,-0.019184,0.001000
1.000000,-0.042388,-0.004731,-0.000669,0.001485,-0.003759,0.010660,0.013376,0.029485,0.012016,-0.019562,0.001000
1.000000,0.003045,-0.012948,-0.000425,0.002230,-0.002300,0.010686,0.013499,0.029698,0.011893,-0.020309,0.001000
1.000000,-0.003502,-0.008598,-0.004576,0.001071,-0.002699,0.010696,0.014012,0.027836,0.017344,-0.023568,0.001000
1.000000,0.032120,0.001900,-0.004788,0.001835,-0.001403,0.010560,0.014131,0.027524,0.017454,-0.023413,0.001000
1.000000,0.002803,-0.001585,-0.001752,0.003762,-0.001394,0.010198,0.013646,0.027777,0.016966,-0.023527,0.001000
1.000000,0.042253,0.015344,0.005306,0.007480,0.000541,0.010923,0.012778,0.025992,0.014595,-0.021120,0.001000
1.000000,-0.019390,0.010857,-0.001045,0.007121,-0.000320,0.010908,0.012400,0.025992,0.014657,-0.021970,0.001000
1.000000,0.003593,0.012276,0.001839,0.004469,0.001163,0.010797,0.012590,0.025768,0.013436,-0.021754,0.001000
1.000000,0.035235,0.012898,0.007399,0.004481,0.003271,0.010843,0.012798,0.026049,0.014039,-0.022607,0.001000
1.000000,-0.059777,0.000383,-0.000601,0.004965,0.001248,0.010602,0.010835,0.027568,0.011788,-0.025221,0.001000
1.000000,0.021813,-0.003705,0.005819,0.002575,0.002930,0.010879,0.012574,0.026686,0.011082,-0.023270,0.001000
1.000000,-0.014781,-0.002783,0.004037,0.001806,0.002832,0.010744,0.013262,0.025197,0.009577,-0.019663,0.001000
1.000000,-0.014706,-0.006443,0.002916,-0.000830,0.001686,0.011229,0.011383,0.023834,0.011868,-0.018989,0.001000
1.000000,-0.041748,-0.021840,-0.004471,-0.004629,-0.000267,0.011282,0.009413,0.024263,0.013059,-0.022225,0.001000
1.000000,0.004316,-0.009021,-0.004319,-0.003036,0.001068,0.010921,0.010442,0.022461,0.013281,-0.019216,0.001000
1.000000,0.029998,-0.007384,-0.005545,-0.000119,0.003138,0.011078,0.010785,0.022473,0.012211,-0.018665,0.001000
1.000000,0.033031,0.002178,-0.000303,-0.000674,0.004646,0.011480,0.010519,0.022403,0.013094,-0.018899,0.001000
1.000000,0.030715,0.011262,0.002409,0.002124,0.003782,0.011711,0.009541,0.021508,0.015118,-0.019117,0.001000
1.000000,0.055297,0.030671,0.004416,0.005907,0.004459,0.012218,0.011661,0.022141,0.010797,-0.011983,0.001000
1.000000,-0.067272,0.016354,0.003666,0.001533,0.004532,0.012204,0.013755,0.023311,0.009618,-0.013500,0.001000
1.000000,0.023807,0.015116,0.003866,0.004842,0.003005,0.012255,0.013919,0.023494,0.010075,-0.013946,0.001000
1.000000,0.000138,0.008537,0.005358,0.004697,0.002990,0.012006,0.013918,0.023402,0.009721,-0.013794,0.001000
1.000000,0.039476,0.010289,0.010776,0.006846,0.003039,0.012132,0.016036,0.023133,0.008588,-0.010852,0.001000
1.000000,-0.005335,-0.001837,0.014417,0.004973,0.001720,0.012156,0.015702,0.022807,0.006063,-0.009533,0.001000
1.000000,-0.015770,0.008463,0.012409,0.004045,0.002112,0.012861,0.015638,0.021045,0.005281,-0.006806,0.001000
1.000000,0.019240,0.007550,0.011333,0.002894,0.003698,0.012686,0.015983,0.021064,0.005534,-0.007411,0.001000
1.000000,0.019269,0.011376,0.009957,0.004827,0.002869,0.012370,0.015530,0.021129,0.005425,-0.008551,0.001000
1.000000,-0.011438,0.001194,0.005742,0.004075,0.003330,0.012515,0.014916,0.021057,0.005529,-0.008433,0.001000
1.000000,0.004354,0.003131,0.000647,0.002531,0.004154,0.013032,0.014566,0.020641,0.005330,-0.006778,0.001000
1.000000,-0.000790,0.006127,0.007295,0.005481,0.003454,0.012561,0.014254,0.020148,0.004699,-0.007071,0.001000
1.000000,-0.020768,-0.001874,0.002838,0.003352,0.004174,0.012538,0.014044,0.020108,0.004923,-0.007258,0.001000
1.000000,-0.000538,-0.005836,0.002770,0.004064,0.004055,0.012560,0.013289,0.019542,0.004542,-0.006842,0.001000
1.000000,0.003091,-0.002930,-0.000868,0.004954,0.004275,0.012582,0.013295,0.019536,0.004594,-0.006915,0.001000
1.000000,0.012268,-0.001347,0.000892,0.007655,0.003613,0.012606,0.013013,0.019799,0.004463,-0.006886,0.001000
1.000000,-0.024010,-0.005991,0.000068,0.006238,0.002719,0.012829,0.013418,0.019502,0.005660,-0.006753,0.001000
1.000000,-0.014771,-0.004792,-0.003333,0.004000,0.000818,0.013017,0.013443,0.019581,0.006051,-0.006916,0.001000
1.000000,-0.007468,-0.006178,-0.006007,0.001975,0.001216,0.012932,0.013571,0.019791,0.006265,-0.007707,0.000000
1.000000,-0.024307,-0.011658,-0.007294,-0.000776,0.000286,0.012345,0.013580,0.020149,0.005942,-0.008748,0.000000
1.000000,0.003266,-0.013458,-0.007403,-0.003378,-0.000780,0.012361,0.013158,0.019029,0.004644,-0.006461,0.000000
1.000000,0.009594,-0.006737,-0.006364,0.000466,0.001532,0.012905,0.013327,0.018503,0.004275,-0.005444,0.000000
1.000000,0.003224,-0.003138,-0.003965,-0.000564,0.000913,0.012752,0.012518,0.017772,0.004147,-0.003575,0.000000
1.000000,0.027879,0.003931,-0.001123,0.000823,0.002335,0.012791,0.012603,0.018054,0.004633,-0.004042,0.000000
1.000000,0.007323,0.010257,-0.000700,-0.000784,0.003069,0.015540,0.012874,0.015360,0.006750,-0.002457,0.000000
1.000000,0.046207,0.018845,0.002694,0.001793,0.006001,0.015416,0.013159,0.016548,0.007596,-0.004536,0.000000
1.000000,0.003477,0.017622,0.005442,0.002755,0.005973,0.015671,0.011831,0.014860,0.007530,-0.001092,0.000000
1.000000,0.000386,0.017054,0.006958,0.001812,0.004986,0.015851,0.010824,0.014381,0.007142,-0.000074,0.000000
1.000000,-0.027360,0.006007,0.004969,-0.000519,0.002973,0.015873,0.010201,0.015053,0.006726,-0.000631,0.000000
1.000000,0.022593,0.009061,0.009659,0.001183,0.002702,0.012575,0.014244,0.019748,0.007395,-0.013848,0.000000
1.000000,0.021589,0.004137,0.011491,0.002044,0.001579,0.012434,0.014286,0.019624,0.007411,-0.013333,0.000000
1.000000,0.003028,0.004047,0.010835,0.002235,0.003922,0.012022,0.013708,0.018403,0.007515,-0.012607,0.000000
1.000000,-0.002649,0.003440,0.010247,0.003141,0.003040,0.010157,0.013094,0.017907,0.003963,-0.014623,0.000000
1.000000,0.021990,0.013310,0.009658,0.004268,0.003768,0.010366,0.013332,0.017526,0.003273,-0.012621,0.000000
1.000000,-0.014439,0.005904,0.007482,0.003391,0.001971,0.011095,0.013124,0.015489,0.003019,-0.008684,0.000000
1.000000,0.037164,0.009019,0.006578,0.004636,0.003388,0.011706,0.013587,0.015462,0.003541,-0.007248,0.000000
1.000000,0.020683,0.012550,0.008299,0.006870,0.004603,0.012064,0.013030,0.014645,0.002711,-0.005043,0.000000
1.000000,-0.031493,0.006781,0.005111,0.006034,0.002912,0.012455,0.013505,0.015223,0.004495,-0.007152,0.000000
1.000000,0.008875,0.004158,0.008734,0.006852,0.002565,0.010420,0.014775,0.016648,0.003181,-0.011827,0.000000
1.000000,0.001935,0.007433,0.006668,0.008164,0.003011,0.009927,0.016029,0.018184,0.005138,-0.015502,0.001000
1.000000,-0.026316,-0.005263,0.001878,0.006685,0.001989,0.009689,0.015831,0.018534,0.005345,-0.015214,0.001000
1.000000,-0.016128,-0.012625,-0.000038,0.005398,0.001478,0.010408,0.014627,0.016973,-0.000100,-0.013621,0.001000
1.000000,0.023911,-0.001545,0.002618,0.006433,0.002967,0.010632,0.012608,0.016158,-0.000651,-0.012080,0.001000
1.000000,-0.032265,-0.009773,-0.002807,0.003426,0.001909,0.009904,0.012944,0.016568,-0.001467,-0.013966,0.001000
1.000000,-0.000509,-0.010261,-0.001414,0.003034,0.001789,0.011261,0.011855,0.016369,-0.002527,-0.011272,0.001000
1.000000,0.013765,-0.002245,-0.003754,0.001412,0.001839,0.011368,0.011789,0.016365,-0.002693,-0.010926,0.001000
1.000000,0.007373,0.002455,-0.005085,0.001607,0.002885,0.012004,0.011872,0.016014,-0.002491,-0.010878,0.001000
1.000000,0.002239,-0.001879,-0.001712,0.001699,0.003452,0.009334,0.013620,0.018811,-0.000011,-0.015444,0.001000
1.000000,-0.023250,-0.000076,-0.004924,0.001905,0.002926,0.009769,0.013396,0.018865,0.001050,-0.014258,0.001000
1.000000,0.025607,0.005147,-0.002557,0.002056,0.004590,0.010253,0.013362,0.018700,0.001619,-0.014137,0.001000
1.000000,0.010847,0.004563,0.001159,0.001518,0.004843,0.008438,0.013652,0.019822,0.000377,-0.016161,0.001000
1.000000,-0.014323,0.000224,0.001340,0.000651,0.004045,0.009594,0.014123,0.015408,0.008299,-0.007374,0.001000
1.000000,-0.004112,-0.001046,-0.001463,0.000578,0.003801,0.009266,0.013929,0.015854,0.008598,-0.008343,0.001000
1.000000,0.010435,0.005691,0.002807,-0.000000,0.003219,0.010458,0.012598,0.015833,0.008584,-0.007854,0.001000
1.000000,0.004316,0.001432,0.003290,0.000938,0.003119,0.009423,0.014068,0.016210,0.007143,-0.008639,0.001000
1.000000,0.014900,0.002243,0.003403,-0.000175,0.002076,0.007338,0.016753,0.016869,0.007948,-0.006830,0.001000
1.000000,0.007127,0.006533,0.003379,-0.000853,0.002197,0.008809,0.015054,0.016111,0.005909,-0.005104,0.001000
1.000000,-0.009433,0.005469,0.002211,0.000250,0.001870,0.008873,0.014909,0.015905,0.006316,-0.004864,0.001000
1.000000,-0.008910,0.001600,0.003645,-0.000640,0.002485,0.008728,0.014361,0.015804,0.005796,-0.004795,0.001000
1.000000,-0.002578,0.000221,0.000827,-0.000865,0.001646,0.008975,0.013626,0.015419,0.005057,-0.004020,0.001000
1.000000,-0.007526,-0.004264,-0.001010,0.000074,0.000676,0.010117,0.010478,0.014742,0.006765,-0.006229,0.001000
1.000000,-0.003225,-0.006334,0.000099,0.000720,0.000467,0.009306,0.008250,0.013399,0.009295,-0.005663,0.001000
1.000000,-0.009738,-0.006395,-0.000463,-0.000963,0.000231,0.009283,0.008088,0.013195,0.008169,-0.005708,0.001000
1.000000,0.019382,-0.000737,0.000432,0.001619,0.000144,0.009290,0.008109,0.013401,0.008365,-0.005859,0.001000
1.000000,0.049803,0.009739,0.004980,0.004135,0.002285,0.007815,0.009729,0.013485,0.011620,-0.004707,0.001000
1.000000,-0.000703,0.011104,0.003420,0.003412,0.001023,0.007857,0.009586,0.013761,0.011383,-0.004365,0.001000
1.000000,-0.009180,0.009913,0.001789,0.002584,0.000028,0.008177,0.008088,0.014436,0.012082,-0.005044,0.001000
1.000000,-0.036359,0.004589,-0.000903,0.000654,-0.000135,0.008419,0.008587,0.015246,0.012045,-0.007850,0.001000
1.000000,-0.002087,0.000295,-0.000221,0.001712,-0.000500,0.008134,0.008714,0.015418,0.011909,-0.007945,0.001000
1.000000,0.019347,-0.005796,0.001972,0.001399,0.000080,0.008530,0.009040,0.013969,0.012134,-0.005812,0.001000
1.000000,-0.006529,-0.006961,0.002071,0.000530,0.000740,0.008608,0.009096,0.014014,0.012135,-0.005387,0.001000
1.000000,-0.027797,-0.010685,-0.000386,-0.000143,0.000351,0.007151,0.010895,0.015607,0.013076,-0.008799,0.001000
1.000000,0.008816,-0.001650,0.001470,0.000503,-0.000152,0.007111,0.009868,0.015283,0.013837,-0.009906,0.001000
1.000000,0.028037,0.004375,0.002335,0.001383,0.001858,0.007504,0.010571,0.015140,0.013364,-0.008752,0.001000
1.000000,0.020465,0.004598,-0.000599,0.002191,0.002557,0.008076,0.009225,0.015387,0.012757,-0.008652,0.001000
1.000000,-0.015548,0.002795,-0.002083,0.000668,0.001580,0.008128,0.010004,0.015169,0.012714,-0.008459,0.001000
1.000000,0.010708,0.010495,-0.000095,0.000847,0.001691,0.008608,0.008364,0.014950,0.012834,-0.007761,0.001000
1.000000,-0.041562,0.000420,-0.000615,-0.000759,0.000231,0.009093,0.008292,0.014655,0.012108,-0.007088,0.001000
1.000000,-0.030945,-0.011377,-0.003501,-0.001861,-0.000025,0.009041,0.008280,0.014673,0.012177,-0.007087,0.001000
1.000000,0.039421,-0.007585,-0.001493,0.000239,0.000435,0.010316,0.005760,0.013819,0.010429,-0.007344,0.001000
1.000000,0.020462,-0.000383,0.001206,0.001638,0.000756,0.010361,0.005987,0.014369,0.010918,-0.008284,0.001000
1.000000,-0.000240,-0.002573,0.003961,0.001788,0.001225,0.009102,0.006448,0.015320,0.011888,-0.010864,0.001000
1.000000,0.016172,0.008974,0.004697,0.003083,0.001901,0.009968,0.006768,0.014922,0.012331,-0.010068,0.001000
1.000000,-0.024115,0.010340,-0.000518,0.000908,0.000749,0.009974,0.006686,0.014476,0.010665,-0.008769,0.001000
1.000000,0.000000,0.002456,-0.002565,-0.001582,0.000606,0.009815,0.006682,0.014717,0.010608,-0.008627,0.001000
1.000000,-0.013993,-0.004435,-0.002409,-0.002246,-0.000358,0.009887,0.005603,0.012565,0.007375,-0.004837,0.001000
1.000000,0.011331,-0.002121,-0.002347,-0.001221,-0.000217,0.009223,0.006488,0.013367,0.007201,-0.007705,0.001000
1.000000,0.004352,-0.004485,0.002245,0.000815,0.000242,0.009387,0.005578,0.012687,0.005942,-0.006477,0.001000
1.000000,0.026662,0.005670,0.008005,0.002252,0.001428,0.009503,0.006318,0.012161,0.005647,-0.004300,0.001000
1.000000,-0.015387,0.002593,0.002524,0.000516,0.001001,0.009112,0.006948,0.011325,0.003826,-0.003149,0.001000
1.000000,0.009379,0.007267,0.001416,0.001311,0.001564,0.009208,0.006962,0.010810,0.003781,-0.003065,0.001000
1.000000,-0.006282,0.003745,0.000812,0.002387,0.001462,0.009247,0.006840,0.011024,0.004051,-0.003298,0.001000
1.000000,-0.010158,0.000843,-0.001821,0.001438,0.001448,0.009441,0.006931,0.011564,0.005214,-0.002743,0.001000
1.000000,-0.014641,-0.007418,-0.000874,-0.000696,0.000314,0.009535,0.006427,0.011037,0.004434,-0.003443,0.001000
1.000000,0.000853,-0.004170,-0.000789,-0.001677,-0.001317,0.009620,0.006124,0.010793,0.004300,-0.003488,0.001000
1.000000,-0.007579,-0.007562,-0.000147,-0.001278,-0.001547,0.010060,0.003466,0.008741,0.001435,-0.003713,0.001000
1.000000,-0.006278,-0.007561,-0.001908,-0.002127,-0.001450,0.009927,0.002967,0.008124,0.000856,-0.005121,0.001000
1.000000,-0.027924,-0.011114,-0.005136,-0.001446,-0.001169,0.009997,0.001190,0.006192,-0.004519,0.001412,0.001000
1.000000,0.021358,-0.003914,-0.005666,0.001170,-0.000387,0.010336,0.001273,0.005125,-0.006039,0.004904,0.001000
1.000000,-0.008363,-0.005757,-0.004964,-0.001220,-0.001311,0.010509,0.001020,0.004964,-0.006072,0.005311,0.001000
1.000000,0.001503,-0.003941,-0.005751,-0.002168,-0.001043,0.010532,0.000372,0.004694,-0.006063,0.005499,0.001000
1.000000,0.022278,0.001770,-0.002895,-0.001042,0.000626,0.010751,-0.000097,0.004319,-0.006167,0.007676,0.001000
1.000000,-0.037411,-0.000127,-0.005620,-0.003721,-0.000915,0.010738,0.000645,0.004174,-0.007760,0.010706,0.001000
1.000000,0.015008,-0.001397,-0.002656,-0.001765,-0.001349,0.011055,-0.000573,0.004390,-0.008097,0.013542,0.001000
1.000000,0.030571,0.006390,0.000316,-0.000236,-0.001012,0.010518,0.000042,0.006504,-0.008388,0.013533,0.001000
1.000000,0.022449,0.010579,0.003319,0.001586,0.000254,0.011024,-0.000439,0.005691,-0.008262,0.014686,0.001000
1.000000,0.067916,0.019706,0.010738,0.004415,0.002161,0.010345,0.001728,0.009540,-0.007984,0.009950,0.001000
1.000000,0.005530,0.028295,0.014084,0.004474,0.003731,0.010304,0.001961,0.009250,-0.008307,0.009712,0.001000
1.000000,-0.003093,0.024674,0.011639,0.002986,0.004659,0.009707,0.002318,0.008172,-0.010388,0.009966,0.001000
1.000000,-0.010679,0.016425,0.011407,0.003222,0.002989,0.009174,0.002541,0.008725,-0.010333,0.010087,0.001000
1.000000,0.009572,0.013849,0.012214,0.003231,0.002626,0.009853,0.003435,0.007422,-0.009733,0.011079,0.001000
1.000000,0.010139,0.002294,0.011000,0.004052,0.002972,0.006057,0.003043,0.011681,-0.017973,0.002548,0.001000
1.000000,-0.007153,-0.000243,0.014026,0.004203,0.002195,0.006239,0.001746,0.011504,-0.018079,0.001060,0.001000
1.000000,-0.003208,-0.000266,0.012204,0.004774,0.002892,0.006569,0.002013,0.010833,-0.017856,0.001018,0.001000
1.000000,-0.000443,0.001781,0.009103,0.004710,0.002877,0.006559,0.002247,0.010879,-0.017623,0.000886,0.001000
1.000000,0.016598,0.003187,0.008518,0.005918,0.003897,0.006338,0.002067,0.011140,-0.017753,0.000990,0.001000
1.000000,0.000327,0.001224,0.001759,0.006249,0.003530,0.006310,0.002142,0.011260,-0.017523,0.000775,0.001000
1.000000,-0.006451,0.001365,0.000561,0.007322,0.003170,0.006379,0.002027,0.011224,-0.017477,0.000991,0.001000
1.000000,0.000439,0.002094,0.000914,0.006276,0.002296,0.006531,0.002083,0.010850,-0.017717,0.000989,0.001000
1.000000,-0.005276,0.001127,0.001454,0.006431,0.002633,0.006374,0.002252,0.010880,-0.017909,0.000612,0.001000
1.000000,-0.005304,-0.003253,-0.000033,0.006090,0.002143,0.006587,0.002836,0.009739,-0.018065,0.000569,0.001000
1.000000,-0.000776,-0.003474,-0.001125,0.004938,0.002327,0.006991,0.002802,0.009150,-0.017659,0.001461,0.001000
1.000000,0.010589,-0.000066,0.000649,0.007338,0.003018,0.006993,0.002794,0.009138,-0.017764,0.001450,0.001000
1.000000,-0.011810,-0.002515,-0.000211,0.005997,0.003113,0.007814,0.001789,0.007688,-0.017595,0.003886,0.001000
1.000000,-0.017698,-0.005000,-0.001936,0.003583,0.002494,0.006980,0.000731,0.006229,-0.023416,0.002647,0.001000
1.000000,0.000678,-0.003803,-0.003528,0.002495,0.002770,0.007052,0.000864,0.005906,-0.023402,0.002666,0.001000
1.000000,0.004057,-0.002837,-0.003155,-0.000698,0.003114,0.006981,0.000762,0.005866,-0.023566,0.002451,0.001000
1.000000,0.064461,0.007938,0.003936,0.002248,0.006194,0.007002,-0.002286,-0.000359,-0.031818,0.008728,0.001000
1.000000,-0.005393,0.009221,0.003353,0.002134,0.005302,0.006860,-0.002914,-0.000333,-0.032424,0.008912,0.001000
1.000000,0.011700,0.015101,0.005050,0.003252,0.005971,0.007031,-0.002677,0.001831,-0.030307,0.006122,0.001000
1.000000,-0.029564,0.009052,0.002625,0.001296,0.004935,0.008081,-0.002546,0.000438,-0.029633,0.008137,0.001000
1.000000,0.003555,0.008952,0.003058,0.000966,0.004311,0.008553,-0.003608,-0.000744,-0.028567,0.011375,0.001000
1.000000,-0.028140,-0.009568,-0.000815,-0.000083,0.004620,0.008341,-0.003687,-0.002471,-0.031094,0.009725,0.001000
1.000000,-0.021807,-0.012851,-0.001815,-0.001013,0.003393,0.008189,-0.004578,-0.001077,-0.030610,0.009862,0.001000
1.000000,0.027872,-0.009617,0.002742,0.000403,0.003303,0.008820,-0.003330,-0.002323,-0.029522,0.010095,0.001000
1.000000,0.000220,-0.003660,0.002696,-0.000416,0.002562,0.008741,-0.003391,-0.002384,-0.029250,0.010119,0.001000
1.000000,-0.010165,-0.006404,0.001274,-0.000941,-0.000041,0.008971,-0.003709,-0.001839,-0.030135,0.008126,0.001000
1.000000,0.003879,-0.000000,-0.004784,-0.000424,-0.000096,0.011361,-0.005502,0.001057,-0.029541,0.005526,0.001000
1.000000,0.033931,0.011148,-0.000852,0.001251,0.001138,0.011698,-0.005615,0.001141,-0.029731,0.005703,0.001000
1.000000,-0.009778,0.003617,-0.003000,0.001025,0.001168,0.011631,-0.006499,0.001342,-0.030372,0.005400,0.001000
1.000000,-0.031369,-0.002700,-0.003180,-0.000278,-0.000196,0.011802,-0.006711,0.001196,-0.030783,0.005643,0.001000
1.000000,-0.005475,-0.001762,-0.004083,-0.000513,-0.000717,0.013347,-0.007376,0.002039,-0.029862,0.005612,0.001000
1.000000,-0.007873,-0.004113,-0.002056,-0.001436,-0.000741,0.012876,-0.007288,0.003710,-0.029582,0.004643,0.001000
1.000000,0.059189,0.000939,0.006043,0.002114,0.001339,0.012931,-0.007342,0.004784,-0.030529,0.006573,0.001000
1.000000,0.011534,0.005201,0.004409,0.003576,0.001738,0.012091,-0.007735,0.004409,-0.028264,0.010327,0.001000
1.000000,0.017314,0.014938,0.006119,0.004407,0.001762,0.012071,-0.007489,0.004446,-0.028155,0.010135,0.001000
1.000000,-0.006223,0.014788,0.006513,0.003893,0.001544,0.012480,-0.007079,0.004807,-0.027654,0.009935,0.001000
1.000000,-0.010144,0.014334,0.005111,0.000163,0.001421,0.012355,-0.008257,0.004203,-0.029070,0.010093,0.001000
1.000000,0.023271,0.007150,0.004045,0.001596,0.002182,0.012345,-0.007958,0.004359,-0.029009,0.010239,0.001000
1.000000,-0.002468,0.004350,0.004776,0.000888,0.002276,0.012718,-0.008572,0.005139,-0.027659,0.010371,0.001000
1.000000,-0.007232,-0.000559,0.007189,0.002005,0.002211,0.012896,-0.007782,0.004798,-0.026376,0.011589,0.001000
1.000000,0.008775,0.002441,0.008614,0.002266,0.002530,0.012608,-0.007643,0.004514,-0.026320,0.012100,0.001000
1.000000,-0.012827,0.001904,0.008119,0.003031,0.001749,0.012671,-0.008024,0.004834,-0.025895,0.011915,0.001000
1.000000,0.002599,-0.002231,0.002460,0.004252,0.002229,0.013408,-0.008923,0.005809,-0.023813,0.012015,0.001000
1.000000,-0.008342,-0.003405,0.000472,0.002441,0.002541,0.013448,-0.009372,0.006128,-0.023702,0.012033,0.001000
1.000000,-0.010738,-0.004107,-0.002333,0.001893,0.002161,0.012730,-0.007884,0.004497,-0.024248,0.012842,0.001000
1.000000,-0.007437,-0.007349,-0.002454,0.002029,0.001778,0.012707,-0.008011,0.004424,-0.024617,0.012793,0.001000
1.000000,-0.006955,-0.006175,-0.002135,0.001488,-0.000603,0.011669,-0.006203,0.003697,-0.023046,0.014366,0.001000
1.000000,0.020512,-0.002592,-0.002411,0.000817,0.000261,0.011638,-0.006023,0.003938,-0.022943,0.014679,0.001000
1.000000,-0.001579,-0.001239,-0.002322,0.001227,-0.000182,0.011959,-0.006052,0.004462,-0.021833,0.014708,0.001000
1.000000,-0.010912,-0.001274,-0.002690,0.002249,0.000440,0.012012,-0.006300,0.004522,-0.022084,0.014655,0.001000
1.000000,-0.002773,-0.000342,-0.003845,0.002385,0.000229,0.012488,-0.006133,0.005627,-0.021203,0.012510,0.001000
1.000000,-0.010199,-0.000990,-0.003582,0.002268,0.000827,0.012294,-0.004651,0.004673,-0.020549,0.011993,0.001000
1.000000,-0.005736,-0.006240,-0.004416,-0.000978,0.001362,0.012047,-0.002151,0.004224,-0.020001,0.010997,0.001000
1.000000,-0.004351,-0.006794,-0.004017,-0.001772,0.000288,0.011854,-0.001381,0.003216,-0.019198,0.011858,0.001000
1.000000,-0.010299,-0.006672,-0.003973,-0.003153,-0.000062,0.012223,-0.001725,0.005919,-0.019988,0.008482,0.001000
1.000000,-0.004194,-0.006956,-0.003649,-0.003051,0.000137,0.009950,-0.003041,-0.004631,-0.015424,0.021825,0.001000
1.000000,0.008151,-0.003286,-0.002138,-0.002137,0.000279,0.009725,-0.003362,-0.004519,-0.016317,0.021429,0.001000
1.000000,-0.002416,-0.002622,-0.004431,-0.003421,-0.000933,0.009708,-0.003757,-0.004623,-0.014063,0.022615,0.001000
1.000000,0.012458,0.000740,-0.003027,-0.002675,-0.000191,0.009719,-0.003923,-0.004653,-0.013717,0.023103,0.001000
1.000000,-0.003045,0.002191,-0.002241,-0.002465,0.000753,0.009860,-0.004099,-0.004752,-0.013838,0.023249,0.001000
1.000000,0.017600,0.006549,-0.000203,-0.002024,0.001522,0.009588,-0.004134,-0.004919,-0.013337,0.024396,0.001000
1.000000,-0.000750,0.004769,0.000742,-0.001420,0.001759,0.009031,-0.001374,-0.003093,-0.013345,0.023340,0.001000
1.000000,0.000750,0.005403,0.001390,-0.001513,-0.000189,0.009327,-0.006951,-0.005597,-0.013345,0.023855,0.001000
1.000000,-0.008599,0.001191,0.000965,-0.001526,-0.000860,0.009489,-0.007509,-0.005969,-0.013402,0.024160,0.001000
1.000000,-0.013258,-0.000851,0.000670,-0.001652,-0.001879,0.008989,-0.005759,-0.006133,-0.012802,0.023691,0.001000
1.000000,0.013798,-0.001612,0.002469,-0.000590,-0.001211,0.009017,-0.005465,-0.004490,-0.013007,0.022734,0.001000
1.000000,0.020188,0.002575,0.003672,0.000767,-0.000200,0.008995,-0.005439,-0.004456,-0.012947,0.022784,0.001000
1.000000,0.006850,0.003796,0.004599,0.000084,-0.000748,0.009010,-0.004768,-0.005763,-0.010763,0.024242,0.001000
1.000000,-0.030713,-0.000627,0.000282,-0.001373,-0.001689,0.008264,-0.004454,-0.006612,-0.011566,0.026395,0.001000
1.000000,0.008734,0.003771,0.001460,-0.000390,-0.001157,0.007924,-0.004104,-0.006499,-0.011986,0.026644,0.001000
1.000000,0.026694,0.006350,0.002369,0.001083,-0.000560,0.008224,-0.004346,-0.006744,-0.011711,0.027308,0.001000
1.000000,-0.004190,0.001475,0.002025,0.001384,-0.000272,0.008207,-0.004287,-0.006755,-0.011576,0.027365,0.001000
1.000000,0.017996,0.003704,0.003750,0.002570,0.000241,0.008056,-0.003975,-0.006931,-0.011880,0.027548,0.001000
1.000000,-0.010571,0.007732,0.003553,0.002259,0.000167,0.007913,-0.004012,-0.006542,-0.012139,0.027164,0.001000
1.000000,-0.026499,0.000686,0.002229,0.001449,-0.000358,0.007871,-0.003794,-0.006757,-0.012503,0.027566,0.001000
1.000000,-0.011081,-0.006869,-0.000259,0.001105,-0.000480,0.008040,-0.003901,-0.006500,-0.012356,0.027104,0.001000
1.000000,0.103498,0.014669,0.008072,0.005872,0.003202,0.007668,-0.005016,-0.001198,-0.011292,0.030545,0.001000
1.000000,0.021519,0.015373,0.009539,0.007069,0.003236,0.007894,-0.005461,0.000082,-0.010617,0.030156,0.001000
1.000000,-0.009689,0.015550,0.011641,0.005962,0.002965,0.007867,-0.005557,0.000828,-0.011146,0.029336,0.001000
1.000000,0.006916,0.022233,0.011459,0.006460,0.003560,0.007975,-0.005252,0.001049,-0.011391,0.028793,0.001000
1.000000,-0.004702,0.023509,0.008320,0.005344,0.003495,0.008195,-0.005434,0.000896,-0.011312,0.028965,0.001000
1.000000,-0.004241,0.001961,0.008315,0.005170,0.003694,0.008353,-0.005258,0.000460,-0.011909,0.029907,0.001000
1.000000,0.013432,0.000343,0.007858,0.005804,0.004333,0.008034,-0.004494,0.001019,-0.012418,0.028486,0.001000
1.000000,0.014382,0.005158,0.010354,0.006953,0.004957,0.006936,-0.004692,0.002010,-0.012980,0.027882,0.001000
1.000000,-0.005841,0.002606,0.012419,0.007324,0.005106,0.007412,-0.004867,0.002890,-0.013042,0.027426,0.001000
1.000000,0.020390,0.007624,0.015566,0.007654,0.005925,0.007920,-0.005050,0.001704,-0.012888,0.028657,0.001000
1.000000,-0.035816,0.001309,0.001635,0.004853,0.004460,0.008296,-0.005046,0.001631,-0.012845,0.029257,0.001000
1.000000,-0.002787,-0.001934,-0.000796,0.004372,0.004447,0.007929,-0.005047,0.001866,-0.012915,0.028738,0.001000
1.000000,0.000770,-0.004657,0.000250,0.005946,0.004058,0.008136,-0.004586,0.001035,-0.012480,0.029795,0.001000
1.000000,-0.005013,-0.004491,-0.000943,0.005258,0.003992,0.007990,-0.004603,0.001163,-0.012549,0.029432,0.001000
1.000000,-0.003097,-0.009189,-0.000782,0.003769,0.003302,0.007591,-0.004595,0.000562,-0.012892,0.029895,0.001000
1.000000,-0.005931,-0.003212,-0.000951,0.003682,0.003130,0.007683,-0.004574,0.000517,-0.012940,0.029872,0.001000
1.000000,0.005640,-0.001526,-0.001730,0.003064,0.003293,0.007434,-0.004538,0.000878,-0.012535,0.028444,0.001000
1.000000,-0.010723,-0.003825,-0.004241,0.003056,0.003222,0.007667,-0.004764,0.001521,-0.012236,0.027975,0.001000
1.000000,0.004986,-0.001825,-0.003158,0.004631,0.003830,0.007393,-0.004684,0.001396,-0.012005,0.028156,0.001000
1.000000,-0.008717,-0.002949,-0.006069,0.004749,0.003079,0.007018,-0.004566,0.000940,-0.012007,0.028652,0.001000
1.000000,-0.003647,-0.002492,-0.002852,-0.000608,0.002285,0.007171,-0.004576,0.000723,-0.011863,0.029151,0.001000
1.000000,-0.001779,-0.003976,-0.002751,-0.001773,0.001997,0.007094,-0.004569,0.000681,-0.011777,0.029100,0.001000
1.000000,0.023848,0.002938,-0.000443,-0.000096,0.003816,0.007431,-0.004697,0.000326,-0.011586,0.029857,0.002000
1.000000,0.000772,0.002095,0.000135,-0.000404,0.003551,0.007395,-0.004773,0.000426,-0.011277,0.030008,0.002000
1.000000,0.005390,0.004917,0.000984,0.000101,0.002841,0.007349,-0.004850,0.000100,-0.010660,0.030904,0.002000
1.000000,0.009838,0.007614,0.002561,0.000805,0.003308,0.007244,-0.005272,0.000345,-0.011431,0.029875,0.002000
1.000000,-0.021035,0.003763,-0.000107,-0.000919,0.002007,0.007261,-0.005284,0.000531,-0.011887,0.029561,0.002000
1.000000,0.003682,-0.000271,0.001334,-0.001454,0.002482,0.007190,-0.005073,0.000608,-0.011815,0.029495,0.002000
1.000000,0.014593,0.002494,0.002295,-0.000432,0.003852,0.007292,-0.005442,0.001305,-0.011805,0.028896,0.002000
1.000000,0.004280,0.002272,0.003594,-0.001237,0.004364,0.006892,-0.005491,0.000492,-0.011872,0.029443,0.002000
1.000000,0.000190,0.000342,0.003978,0.000563,0.000920,0.007068,-0.005672,0.000839,-0.012495,0.028419,0.002000
1.000000,0.000854,0.004720,0.004241,0.000745,0.000231,0.007091,-0.005686,0.001333,-0.013054,0.027209,0.002000
1.000000,-0.000759,0.003832,0.001780,0.000669,0.000529,0.006931,-0.005706,0.001249,-0.013507,0.027068,0.002000
1.000000,-0.001994,0.000514,0.001504,0.000819,0.000232,0.007015,-0.005646,0.001142,-0.013324,0.027191,0.002000
1.000000,0.002658,0.000190,0.001231,0.001107,0.000477,0.006511,-0.005544,0.000819,-0.014117,0.028189,0.002000
1.000000,-0.019241,-0.003697,-0.001677,0.000442,-0.000023,0.006301,-0.005783,0.001106,-0.014474,0.027736,0.002000
1.000000,0.002124,-0.003442,0.000639,0.000266,-0.000399,0.005695,-0.006583,0.001411,-0.014165,0.027942,0.002000
1.000000,0.002120,-0.002867,0.000482,0.000908,-0.000808,0.005435,-0.007163,0.002143,-0.014729,0.026938,0.002000
1.000000,0.004705,-0.001527,-0.000506,0.000894,-0.000457,0.004864,-0.007120,0.001479,-0.014961,0.028420,0.002000
1.000000,-0.014376,-0.004934,-0.002372,0.000611,-0.001616,0.005071,-0.007406,0.002222,-0.015731,0.027778,0.002000
1.000000,-0.016659,-0.004417,-0.004057,-0.000040,-0.000977,0.005338,-0.007339,0.002269,-0.015733,0.027832,0.002000
1.000000,0.003748,-0.004093,-0.003767,0.000237,-0.000759,0.005255,-0.007046,0.001792,-0.017688,0.027052,0.002000
1.000000,-0.005726,-0.005662,-0.004264,-0.001242,-0.000976,0.004999,-0.007125,0.001929,-0.017089,0.028100,0.002000
1.000000,-0.012855,-0.009174,-0.005350,-0.001923,-0.001237,0.005399,-0.007152,0.003205,-0.015992,0.026704,0.002000
1.000000,0.012260,-0.003846,-0.004390,-0.001580,-0.000725,0.003550,-0.006606,0.003074,-0.015401,0.027511,0.002000
1.000000,-0.012361,-0.002987,-0.003702,-0.002690,-0.000939,0.004028,-0.006412,0.002262,-0.014891,0.029224,0.002000
1.000000,-0.025498,-0.008836,-0.006464,-0.002913,-0.001977,0.005753,-0.004545,0.001283,-0.015778,0.032523,0.002000
1.000000,0.009727,-0.005745,-0.005703,-0.002610,-0.001296,0.005232,-0.003631,0.002752,-0.015262,0.031955,0.002000
1.000000,0.016873,0.000200,-0.004487,-0.002496,-0.000899,0.005970,-0.004400,0.002721,-0.015595,0.032138,0.002000
1.000000,0.016199,0.000988,-0.001429,-0.001901,-0.000069,0.006006,-0.004071,0.002709,-0.015364,0.032498,0.002000
1.000000,-0.010803,0.001300,-0.000843,-0.002450,-0.000307,0.005368,-0.003522,0.002204,-0.015376,0.033046,0.002000
1.000000,0.008731,0.008145,-0.000345,-0.002056,0.000043,0.005969,-0.005138,0.003814,-0.018916,0.030342,0.002000
1.000000,-0.004753,0.005249,-0.000248,-0.002256,-0.000911,0.006595,-0.005279,0.004203,-0.018995,0.028791,0.002000
1.000000,-0.005773,0.000720,0.000460,-0.002445,-0.001129,0.006763,-0.005524,0.004261,-0.018850,0.028571,0.002000
1.000000,-0.011446,-0.004809,-0.001910,-0.003150,-0.001690,0.005911,-0.005123,0.004733,-0.019067,0.027485,0.002000
1.000000,0.004433,-0.001762,-0.000231,-0.001966,-0.001870,0.005733,-0.005501,0.004989,-0.020332,0.026285,0.002000
1.000000,-0.019696,-0.007447,0.000349,-0.003057,-0.001825,0.006071,-0.005942,0.004944,-0.020361,0.026235,0.002000
1.000000,0.000410,-0.006414,-0.000582,-0.003143,-0.001934,0.006134,-0.006081,0.005053,-0.020525,0.025913,0.002000
1.000000,-0.013102,-0.007880,-0.003580,-0.004033,-0.002858,0.005954,-0.006088,0.005085,-0.020098,0.025837,0.002000
1.000000,0.016580,-0.002275,-0.003542,-0.002485,-0.002448,0.005343,-0.004860,0.004135,-0.021262,0.026612,0.002000
1.000000,-0.009441,-0.005050,-0.003406,-0.002125,-0.002769,0.007586,-0.003341,0.003699,-0.015836,0.017941,0.002000
1.000000,0.031062,0.005102,-0.001173,-0.000759,-0.001762,0.009505,-0.003358,0.001257,-0.016687,0.016115,0.001000
1.000000,-0.015918,0.001836,-0.002289,-0.001268,-0.002267,0.009029,-0.003089,0.000432,-0.016245,0.016796,0.001000
1.000000,0.001015,0.004660,-0.001610,-0.000575,-0.002167,0.008948,-0.003265,0.000430,-0.016248,0.017074,0.001000
1.000000,0.015103,0.004364,0.001045,-0.000433,-0.001752,0.007952,-0.003183,0.000668,-0.016988,0.017978,0.001000
1.000000,-0.005411,0.005170,0.000060,-0.000085,-0.001291,0.008028,-0.003248,0.000826,-0.016764,0.017660,0.001000
1.000000,-0.048373,-0.010717,-0.002807,-0.001229,-0.002974,0.007302,-0.004951,0.000023,-0.018807,0.024525,0.001000
1.000000,0.009132,-0.005707,-0.001935,-0.001259,-0.002740,0.006552,-0.004416,-0.000218,-0.018935,0.025013,0.001000
1.000000,-0.009554,-0.007821,-0.001580,-0.002580,-0.003216,0.006157,-0.004798,0.000112,-0.019438,0.025157,0.001000
1.000000,0.001687,-0.010504,-0.003070,-0.003306,-0.002680,0.002826,-0.002826,0.000553,-0.020380,0.026991,0.001000
1.000000,-0.003799,-0.010181,-0.002506,-0.002956,-0.002252,0.001555,-0.002148,0.001888,-0.018547,0.024799,0.001000
1.000000,0.025778,0.004649,-0.003034,-0.002103,-0.001517,0.002063,-0.001814,0.000716,-0.018341,0.027191,0.001000
1.000000,-0.012754,0.000271,-0.002718,-0.002503,-0.001751,0.002268,-0.002091,0.000418,-0.018240,0.027857,0.001000
1.000000,0.006242,0.003431,-0.002195,-0.001903,-0.001115,0.001496,-0.001245,0.000200,-0.017956,0.028612,0.001000
1.000000,-0.002180,0.002657,-0.003923,-0.001439,-0.001596,0.001715,-0.001126,0.000737,-0.017322,0.028254,0.001000
1.000000,-0.017720,-0.000127,-0.005154,-0.002547,-0.001775,0.002678,-0.001028,0.001157,-0.017651,0.026304,0.001000
1.000000,0.001269,-0.005029,-0.000190,-0.001499,-0.000883,0.003220,-0.001265,0.000809,-0.017367,0.026093,0.001000
1.000000,0.001689,-0.002140,-0.000934,-0.001435,-0.001151,0.003065,-0.000903,-0.000122,-0.018628,0.025882,0.001000
1.000000,0.000527,-0.003283,0.000074,-0.000753,-0.001696,0.002799,-0.000922,-0.000320,-0.019385,0.025653,0.001000
1.000000,-0.015725,-0.005992,-0.001667,-0.002369,-0.002760,0.003572,-0.001646,0.000077,-0.018539,0.025962,0.001000
1.000000,0.020248,0.001602,0.000737,-0.000884,-0.001725,0.004091,-0.001993,0.000555,-0.018026,0.026344,0.001000
1.000000,0.017786,0.004905,-0.000062,-0.001548,-0.001423,0.003219,-0.001615,0.000530,-0.018870,0.027227,0.001000
1.000000,0.001751,0.004917,0.001389,-0.000664,-0.001206,0.002228,-0.001000,0.001198,-0.018673,0.026403,0.001000
1.000000,0.003903,0.005593,0.001155,-0.000520,-0.000883,0.002275,-0.000381,0.000708,-0.019211,0.026490,0.001000
