0.000000,0.004265,0.000210,0.002901,0.001533,0.004035
1.000000,0.006725,0.002707,0.002896,0.002304,0.012961
2.000000,0.012105,0.001310,0.003128,0.002147,0.001589
3.000000,0.005455,0.000460,0.002808,0.001410,-0.014872
4.000000,0.001546,0.001520,0.002856,0.002211,0.004020
5.000000,0.003069,0.003667,0.003015,0.003048,0.011646
6.000000,-0.000255,0.003235,0.001989,0.002558,-0.003655
7.000000,-0.002138,0.004983,0.002525,0.001932,-0.007831
8.000000,0.001541,0.003498,0.002499,0.002055,0.003523
9.000000,0.001152,0.001349,0.001786,0.002232,0.002076
10.000000,-0.000095,0.001487,0.000848,0.002430,0.005410
11.000000,0.001838,0.000792,0.001749,0.002195,0.006012
12.000000,0.002930,0.000396,0.000853,0.002217,-0.002369
13.000000,-0.000544,0.000498,0.000479,0.002038,-0.013850
14.000000,-0.000575,0.000288,0.000904,0.002000,0.001922
15.000000,-0.001210,-0.000652,0.001507,0.001793,0.002237
16.000000,-0.004144,-0.001153,0.001041,0.000942,-0.008658
17.000000,0.000694,0.001812,0.003398,0.002288,0.021821
18.000000,0.002485,0.000970,0.002234,0.001990,-0.004896
19.000000,-0.000032,-0.000304,0.000523,0.001090,-0.010665
20.000000,0.005231,0.002011,0.001749,0.001236,0.028553
21.000000,0.004899,0.000378,0.000585,0.001292,-0.010317
22.000000,0.002940,0.001817,0.001107,0.001175,0.012027
23.000000,0.005235,0.003860,0.002179,0.001606,0.006577
24.000000,0.007507,0.003737,0.002013,0.001849,0.000694
25.000000,0.007149,0.006190,0.002769,0.003068,0.026766
26.000000,0.009303,0.007101,0.002974,0.003061,0.000450
27.000000,0.008034,0.005487,0.003650,0.004094,0.005684
28.000000,0.005971,0.005603,0.003287,0.003357,-0.003736
29.000000,0.005413,0.006460,0.003078,0.002502,-0.002098
30.000000,-0.006218,0.000465,0.001238,0.001321,-0.031391
31.000000,-0.002931,0.003186,0.001782,0.001452,0.016885
32.000000,-0.010251,-0.001108,0.000354,0.000368,-0.030914
33.000000,-0.014849,-0.004439,-0.000289,-0.000027,-0.026728
34.000000,-0.012344,-0.003466,0.000136,0.000187,0.010426
35.000000,-0.011862,-0.009040,-0.001425,-0.001167,-0.028978
36.000000,-0.012401,-0.007666,-0.000283,-0.000573,0.014189
37.000000,-0.000755,-0.005503,-0.000008,0.000599,0.027316
38.000000,0.002675,-0.006087,-0.000242,0.000162,-0.009579
39.000000,-0.003769,-0.008057,-0.000798,-0.000634,-0.021793
40.000000,0.000066,-0.005898,-0.002716,-0.001141,-0.009804
41.000000,0.001934,-0.005234,-0.001024,-0.000557,0.023530
42.000000,-0.002091,-0.001423,-0.001266,-0.000238,0.007191
43.000000,0.002922,0.002798,-0.000820,0.000740,0.015485
44.000000,0.009029,0.002630,-0.000418,0.000967,0.008742
45.000000,0.010959,0.005512,-0.001764,0.000887,-0.000155
46.000000,0.008448,0.005191,-0.001238,0.001542,0.010976
47.000000,0.006702,0.002305,-0.001599,0.000763,-0.001539
48.000000,0.006600,0.004761,-0.000663,0.001426,0.014978
49.000000,0.002686,0.005858,-0.001100,0.001420,-0.010829
50.000000,0.000404,0.005681,-0.000108,0.000083,-0.011568
51.000000,-0.004352,0.002048,-0.001593,0.000000,-0.012803
52.000000,-0.005685,0.000508,-0.000457,-0.000674,-0.008205
53.000000,-0.012423,-0.002911,-0.000056,-0.001517,-0.018710
54.000000,-0.008521,-0.002917,-0.000144,-0.001251,0.008679
55.000000,-0.007911,-0.003754,0.000879,-0.002427,-0.008518
56.000000,0.002530,-0.000911,0.002140,-0.001129,0.039401
57.000000,0.003081,-0.001302,0.000502,-0.001500,-0.005445
58.000000,0.006620,-0.002901,0.000930,-0.001409,-0.001015
59.000000,0.005586,-0.001468,0.002195,-0.001222,0.003508
60.000000,0.008113,0.000101,0.002891,-0.000039,0.004115
61.000000,-0.004392,-0.000931,0.000558,-0.001372,-0.023125
62.000000,-0.008509,-0.002714,-0.001103,-0.001210,-0.026030
63.000000,-0.005237,0.000692,-0.001110,0.000193,0.015346
64.000000,-0.002569,0.001509,-0.000704,0.000407,0.016850
65.000000,-0.001259,0.003427,-0.000163,0.001728,0.010662
66.000000,0.003957,-0.000217,-0.000564,0.001354,0.002959
67.000000,0.008603,0.000047,-0.000628,0.000350,-0.002803
68.000000,-0.001029,-0.003133,-0.003017,-0.000424,-0.032811
69.000000,-0.017586,-0.010077,-0.005772,-0.001896,-0.065936
70.000000,-0.014687,-0.007973,-0.003936,-0.000730,0.025154
71.000000,-0.022699,-0.009371,-0.005151,-0.002752,-0.037101
72.000000,-0.021270,-0.006333,-0.004524,-0.002846,0.004345
73.000000,-0.017995,-0.009512,-0.004410,-0.003910,-0.016437
74.000000,0.000344,-0.008621,-0.003556,-0.003343,0.025758
75.000000,-0.003659,-0.009173,-0.002873,-0.003167,0.005141
76.000000,0.008692,-0.007004,-0.003611,-0.002711,0.024651
77.000000,0.011032,-0.005119,-0.002536,-0.002125,0.016048
78.000000,0.009771,-0.004112,-0.003622,-0.003382,-0.022741
79.000000,0.009267,0.004805,-0.002636,-0.002246,0.023234
80.000000,0.006988,0.001664,-0.003154,-0.002069,-0.006253
81.000000,-0.001809,0.003441,-0.002965,-0.002287,-0.019334
82.000000,-0.003627,0.003703,-0.001315,-0.001782,0.006960
83.000000,0.007998,0.008885,-0.000314,0.000022,0.035382
84.000000,0.006647,0.007957,-0.000332,0.000282,0.016479
85.000000,0.022637,0.014813,0.002820,0.003022,0.073700
86.000000,0.029750,0.013970,0.003483,0.002250,0.016230
87.000000,0.025701,0.011037,0.002959,0.001988,-0.013286
88.000000,0.014916,0.011457,0.003673,0.001404,-0.018542
89.000000,0.011740,0.009193,0.006999,0.001307,0.000599
90.000000,0.001469,0.012053,0.006859,0.001915,0.022343
91.000000,-0.004725,0.012512,0.007977,0.002194,-0.014741
92.000000,-0.004248,0.010726,0.007215,0.002699,-0.010900
93.000000,0.002470,0.008693,0.008789,0.002689,0.015049
94.000000,0.002882,0.007311,0.007634,0.002216,0.002658
95.000000,-0.003543,-0.001037,0.006888,0.001534,-0.009782
96.000000,-0.005663,-0.005194,0.004388,0.000591,-0.025341
97.000000,-0.002751,-0.003500,0.003769,0.000806,0.003660
98.000000,-0.006615,-0.002073,0.004692,0.001758,-0.004271
99.000000,-0.006719,-0.001919,0.003637,0.004027,0.002138
100.000000,-0.002156,-0.002850,0.004602,0.003623,0.013032
101.000000,0.002686,-0.001489,0.005512,0.004822,-0.001130
102.000000,-0.003532,-0.003141,0.003792,0.003763,-0.027428
103.000000,0.001401,-0.002607,0.003043,0.004990,0.020395
104.000000,0.001580,-0.002570,0.002371,0.004233,0.003031
105.000000,-0.006612,-0.004384,-0.002711,0.003130,-0.027929
106.000000,-0.003114,-0.000214,-0.002704,0.002854,0.016361
107.000000,0.005471,0.000969,-0.001265,0.002836,0.015495
108.000000,-0.000213,0.000594,-0.000739,0.003326,-0.008021
109.000000,-0.004654,-0.001537,-0.001728,0.001913,-0.019177
110.000000,0.001735,-0.002438,-0.002644,0.002255,0.004019
111.000000,0.004061,0.000474,-0.000507,0.003832,0.027991
112.000000,-0.001422,0.002024,-0.000559,0.003203,-0.011922
113.000000,0.002567,0.001177,-0.000715,0.002421,0.011922
114.000000,0.008936,0.002141,-0.000214,0.002294,0.012671
115.000000,0.008990,0.005362,0.000489,-0.000020,0.004286
116.000000,-0.003526,0.000268,0.000027,-0.001714,-0.034588
117.000000,-0.002045,-0.001733,-0.000382,-0.001421,-0.004514
118.000000,-0.009084,-0.003259,-0.001332,-0.001579,-0.023275
119.000000,-0.007332,0.000802,-0.000367,-0.000884,0.021433
120.000000,-0.005624,0.001683,-0.000378,-0.001202,0.012825
121.000000,0.000015,-0.001755,-0.000641,-0.000923,-0.006392
122.000000,0.001954,-0.000046,0.000989,-0.000388,0.005177
123.000000,0.012062,0.001489,0.001333,0.000020,0.027268
124.000000,0.011524,0.002096,0.002119,0.000556,0.018741
125.000000,0.009394,0.001885,0.003624,0.000954,0.002173
126.000000,0.013860,0.006937,0.003603,0.002330,0.015938
127.000000,0.011910,0.006932,0.002599,0.002056,-0.004569
128.000000,0.009947,0.011004,0.003873,0.002780,0.017448
129.000000,0.006283,0.008903,0.004853,0.002723,0.000422
130.000000,0.007639,0.008516,0.005100,0.002587,0.008956
131.000000,0.006061,0.009960,0.004102,0.002893,0.008048
132.000000,0.005337,0.008624,0.004289,0.003534,-0.008187
133.000000,0.003264,0.006605,0.004047,0.003090,0.007081
134.000000,0.004943,0.005613,0.003854,0.003283,0.008815
135.000000,0.004736,0.006188,0.004036,0.004478,0.007922
136.000000,0.005399,0.005730,0.006334,0.004312,0.011364
137.000000,0.008110,0.006724,0.006828,0.003974,0.005366
138.000000,0.005567,0.004415,0.007710,0.004054,-0.005635
139.000000,-0.002428,0.001257,0.005080,0.003654,-0.031159
140.000000,0.000489,0.002613,0.005564,0.004271,0.022510
141.000000,-0.003994,0.000702,0.005331,0.002969,-0.011054
142.000000,-0.006486,0.000812,0.004718,0.003130,-0.007092
143.000000,-0.006204,-0.000319,0.003143,0.002592,-0.004224
144.000000,0.001948,-0.000240,0.002686,0.002489,0.009600
145.000000,0.006306,0.003397,0.004792,0.003823,0.044299
146.000000,0.009775,0.002890,0.004310,0.005186,0.006293
147.000000,0.012678,0.003096,0.004910,0.005584,0.007421
148.000000,0.012273,0.003035,0.003725,0.006151,-0.006246
149.000000,0.014232,0.008090,0.004673,0.006083,0.019390
150.000000,0.008370,0.007338,0.004975,0.006156,0.014994
151.000000,0.007440,0.008607,0.004655,0.006423,0.001638
152.000000,0.005855,0.009266,0.005039,0.006234,-0.000504
153.000000,0.006448,0.009361,0.004521,0.005216,-0.003281
154.000000,0.000230,0.007231,0.003495,0.004201,-0.011696
155.000000,-0.002513,0.002929,0.003163,0.004171,0.001278
156.000000,-0.004276,0.001582,0.002236,0.003401,-0.007178
157.000000,-0.007810,-0.000978,0.001059,0.002947,-0.018173
158.000000,-0.004628,0.000910,0.001972,0.002787,0.012626
159.000000,-0.005918,-0.002844,0.002623,0.002168,-0.018143
160.000000,-0.002830,-0.002671,0.002333,0.002426,0.016719
161.000000,0.001461,-0.001407,0.003600,0.002634,0.014276
162.000000,0.005733,-0.001038,0.004114,0.003013,0.003187
163.000000,0.002149,-0.001240,0.004060,0.002601,-0.005297
164.000000,0.009793,0.001938,0.004584,0.002976,0.020080
165.000000,0.003442,0.000306,0.001617,0.002211,-0.015038
166.000000,0.000536,0.000998,0.001290,0.001823,-0.000255
167.000000,0.001661,0.003697,0.001360,0.001938,0.008812
168.000000,0.005341,0.003745,0.002327,0.002563,0.013106
169.000000,0.002468,0.006131,0.001643,0.003792,0.005715
170.000000,0.005822,0.004632,0.000980,0.003100,0.001733
171.000000,0.008234,0.004385,0.001489,0.003861,0.011802
172.000000,0.006300,0.003980,0.001471,0.004069,-0.000856
173.000000,0.008107,0.006724,0.002742,0.004948,0.022138
174.000000,0.007966,0.005217,0.003577,0.004795,0.005013
175.000000,0.005754,0.005788,0.003047,0.003008,-0.009329
176.000000,0.002623,0.005428,0.003213,0.002669,-0.003853
177.000000,0.005156,0.005728,0.004712,0.002816,0.011812
178.000000,0.005476,0.006791,0.005268,0.003815,0.023737
179.000000,0.003212,0.005589,0.005860,0.002959,-0.006306
180.000000,0.002911,0.004332,0.004482,0.002098,-0.010836
181.000000,0.003658,0.003140,0.003762,0.002039,-0.000118
182.000000,0.005073,0.005115,0.004547,0.002686,0.018890
183.000000,-0.000490,0.002493,0.004609,0.002659,-0.004076
184.000000,0.001587,0.002400,0.003808,0.003185,0.004076
185.000000,0.002179,0.002545,0.004166,0.002880,-0.007876
186.000000,0.000497,0.002077,0.003753,0.002835,-0.008529
187.000000,0.000093,0.002583,0.004156,0.004003,0.016870
188.000000,0.001140,0.000325,0.003558,0.003620,0.001161
189.000000,-0.000326,0.000631,0.003110,0.004117,-0.003254
190.000000,0.004471,0.003325,0.003829,0.004096,0.016109
191.000000,0.004151,0.002324,0.002732,0.003283,-0.010132
192.000000,-0.000815,-0.000361,0.002377,0.002911,-0.007958
193.000000,-0.000977,0.000082,0.001287,0.003100,0.000350
194.000000,0.003531,0.001603,0.002001,0.003073,0.019286
195.000000,0.004989,0.004730,0.003638,0.004354,0.023400
196.000000,0.009304,0.006727,0.004402,0.004744,0.011443
197.000000,0.009677,0.004431,0.003507,0.004247,-0.006094
198.000000,0.012169,0.005596,0.002961,0.004238,0.012809
199.000000,0.007344,0.005437,0.003034,0.003886,-0.004839
200.000000,0.005292,0.005141,0.004233,0.004266,0.013144
201.000000,0.003569,0.006436,0.004380,0.003967,0.002825
202.000000,0.005686,0.007682,0.003660,0.004145,0.004493
203.000000,-0.004258,0.003955,0.002018,0.002177,-0.036914
204.000000,0.000033,0.003688,0.002646,0.002564,0.016617
205.000000,-0.000392,0.002450,0.003590,0.003242,0.011018
206.000000,-0.002072,0.000748,0.003738,0.003184,-0.005576
207.000000,-0.000076,0.002805,0.003618,0.003273,0.014476
208.000000,0.002096,-0.001081,0.002257,0.001613,-0.026055
209.000000,-0.003368,-0.001668,0.001885,0.001467,-0.010705
210.000000,-0.004923,-0.002657,0.001242,0.001936,0.003246
211.000000,0.001137,-0.000468,0.002984,0.002764,0.024723
212.000000,-0.005878,-0.002977,0.002353,0.001448,-0.020597
213.000000,-0.004124,-0.001014,0.001471,0.001008,-0.017286
214.000000,-0.007796,-0.005582,-0.000947,-0.000097,-0.029064
215.000000,-0.009169,-0.007046,-0.002298,0.000045,-0.003620
216.000000,-0.013541,-0.006202,-0.002727,0.000425,0.002862
217.000000,-0.014562,-0.010220,-0.003707,-0.000994,-0.025699
218.000000,-0.008299,-0.006212,-0.003646,-0.000566,0.014024
219.000000,-0.002227,-0.005011,-0.003340,-0.000414,0.001297
220.000000,0.000491,-0.004339,-0.003498,-0.000619,0.009969
221.000000,-0.003447,-0.008494,-0.004481,-0.000842,-0.016829
222.000000,0.000943,-0.006809,-0.004893,-0.000701,-0.003745
223.000000,-0.003020,-0.005660,-0.003337,-0.000906,-0.005794
224.000000,-0.000425,-0.001326,-0.003454,-0.001073,0.014276
225.000000,-0.001429,-0.000469,-0.003757,-0.001688,0.004949
226.000000,0.000805,-0.001321,-0.003762,-0.002258,-0.005658
227.000000,0.001554,0.001249,-0.004485,-0.002055,0.000000
228.000000,-0.000576,-0.001798,-0.004005,-0.003030,-0.016447
229.000000,-0.005169,-0.002797,-0.003904,-0.003159,-0.008689
230.000000,-0.006159,-0.003794,-0.004066,-0.003597,0.000000
231.000000,-0.004446,-0.001820,-0.005157,-0.003594,0.002905
232.000000,-0.002474,-0.000460,-0.003634,-0.003415,0.009862
233.000000,-0.001278,-0.000927,-0.003293,-0.002534,-0.010466
234.000000,-0.006104,-0.005637,-0.003481,-0.004182,-0.032822
235.000000,-0.008493,-0.007326,-0.003897,-0.004947,-0.011943
236.000000,-0.007587,-0.006017,-0.003669,-0.004513,0.007434
237.000000,-0.013438,-0.007956,-0.003354,-0.005642,-0.019393
238.000000,-0.008675,-0.004976,-0.003387,-0.004329,0.013350
239.000000,-0.001279,-0.003692,-0.003244,-0.003833,0.004159
240.000000,0.002013,-0.003240,-0.003517,-0.003791,0.004518
241.000000,0.000401,-0.003593,-0.002707,-0.004636,-0.000626
242.000000,0.007215,-0.003112,-0.001786,-0.003460,0.014675
243.000000,0.008602,-0.000036,-0.000482,-0.002208,0.020287
244.000000,0.011605,0.005163,-0.000237,-0.000600,0.019171
245.000000,0.009630,0.005822,-0.000752,-0.000658,-0.005355
246.000000,0.010518,0.005460,-0.000279,-0.000626,0.003811
247.000000,0.007297,0.007256,-0.000350,0.000183,-0.001427
248.000000,0.004592,0.006597,0.000811,-0.000059,0.006762
249.000000,-0.001393,0.005106,0.000707,-0.000461,-0.010758
250.000000,0.000262,0.004946,0.000853,-0.000696,0.002924
251.000000,-0.003889,0.003315,-0.000139,-0.000700,-0.016944
252.000000,-0.004162,0.001568,-0.000772,-0.000668,-0.002791
253.000000,-0.006171,-0.000789,-0.000413,-0.000584,-0.003287
254.000000,-0.000598,-0.000996,0.002084,-0.000490,0.017107
255.000000,-0.001267,-0.000502,0.002660,-0.000669,-0.000420
256.000000,0.002385,-0.000752,0.002354,-0.000436,0.001318
257.000000,0.002704,-0.000729,0.003264,-0.000476,-0.001198
258.000000,-0.000684,-0.003428,0.001585,-0.000602,-0.020227
259.000000,0.002087,0.000744,0.002925,0.000719,0.030961
260.000000,0.004248,0.001490,0.003218,0.001066,0.010385
261.000000,0.003679,0.003032,0.003173,0.000918,-0.001527
262.000000,0.002573,0.002639,0.002103,0.000365,-0.006724
263.000000,0.006950,0.003133,0.001172,0.000769,0.001656
264.000000,0.003667,0.002877,0.000941,0.002348,0.014547
265.000000,-0.001402,0.001423,0.000460,0.002247,-0.014961
266.000000,-0.005447,-0.000884,-0.000818,0.001275,-0.021752
267.000000,-0.008290,-0.002858,-0.001793,0.001223,-0.020939
268.000000,-0.002402,0.002274,-0.000577,0.001815,0.031097
269.000000,-0.008409,-0.002371,-0.000813,0.001160,-0.015488
270.000000,-0.003639,-0.002520,-0.000515,0.001305,0.008888
271.000000,-0.000351,-0.002899,0.000067,0.001149,-0.005311
272.000000,-0.000445,-0.004367,-0.000864,-0.000054,-0.021409
273.000000,0.001620,-0.000391,0.001371,0.000651,0.041420
274.000000,0.003408,-0.002500,0.000188,-0.000206,-0.006546
275.000000,0.008393,0.002377,0.001900,0.001099,0.033814
276.000000,0.013184,0.006417,0.002766,0.001594,0.018643
277.000000,0.014843,0.007199,0.002170,0.001204,-0.013117
278.000000,0.007155,0.004387,0.003331,0.001078,0.002981
279.000000,0.008922,0.006165,0.001897,0.001513,0.002287
280.000000,0.002558,0.005476,0.001478,0.001482,0.001997
281.000000,0.000521,0.006852,0.001977,0.002329,0.008456
282.000000,0.006462,0.010652,0.003143,0.002975,0.016589
283.000000,0.004684,0.005919,0.002764,0.002887,-0.005909
284.000000,0.005542,0.007232,0.002366,0.002536,0.006576
285.000000,0.002863,0.002711,0.002544,0.002170,-0.011395
286.000000,0.003851,0.002186,0.004301,0.002573,0.013393
287.000000,0.004485,0.005473,0.006336,0.003271,0.019759
288.000000,0.008301,0.006492,0.005440,0.004385,0.013174
289.000000,0.008088,0.006815,0.006490,0.003536,0.005509
290.000000,0.012437,0.007650,0.006563,0.003535,0.010348
291.000000,0.009610,0.006730,0.006791,0.003561,-0.000739
292.000000,0.008053,0.006269,0.008461,0.004185,0.011974
293.000000,0.004288,0.006294,0.006107,0.003941,-0.005654
294.000000,0.003794,0.005941,0.006586,0.003557,0.003040
295.000000,0.000527,0.006482,0.004596,0.003857,-0.005985
296.000000,-0.000254,0.004678,0.003432,0.004427,-0.004644
297.000000,-0.006321,0.000866,0.003169,0.004513,-0.018365
298.000000,-0.005709,-0.000711,0.002891,0.003390,-0.002590
299.000000,-0.008708,-0.002457,0.002179,0.003508,-0.011955
300.000000,-0.004214,-0.001844,0.002903,0.003761,0.016483
301.000000,-0.001913,-0.001084,0.002823,0.004166,0.006860
302.000000,0.003800,-0.001261,0.002504,0.005220,0.010202
303.000000,0.002576,-0.001566,0.002364,0.003549,-0.008708
304.000000,0.007932,-0.000388,0.002776,0.004261,0.014821
305.000000,0.006017,0.000902,0.003692,0.003365,0.006912
306.000000,0.002505,0.000296,0.002487,0.002387,-0.010702
307.000000,0.002522,0.003161,0.002013,0.003167,0.010284
308.000000,0.004847,0.003712,0.001501,0.003165,0.002919
309.000000,0.003273,0.005602,0.001573,0.003320,0.006951
310.000000,0.005679,0.005848,0.002002,0.003885,0.018945
311.000000,0.006803,0.004654,0.001785,0.003434,-0.005085
312.000000,0.006573,0.004547,0.001643,0.003185,0.009134
313.000000,0.006251,0.005549,0.001992,0.003426,0.001313
314.000000,0.007945,0.005609,0.002610,0.003721,0.015419
315.000000,0.002400,0.004040,0.002471,0.003808,-0.008782
316.000000,-0.000306,0.003248,0.001772,0.002741,-0.018615
317.000000,-0.000546,0.003013,0.003087,0.002347,0.007933
318.000000,-0.000323,0.002964,0.003338,0.001988,0.002428
319.000000,-0.005112,0.001417,0.003509,0.001521,-0.008525
320.000000,-0.002298,0.000051,0.002950,0.001352,0.005286
321.000000,0.004103,0.001899,0.003276,0.001823,0.013395
322.000000,0.004805,0.002129,0.003338,0.001805,0.011439
323.000000,0.004121,0.001899,0.003724,0.001961,-0.000990
324.000000,0.008657,0.001773,0.003691,0.002331,0.014155
325.000000,0.009697,0.003699,0.003869,0.002880,0.010487
326.000000,0.004706,0.004405,0.003827,0.002650,-0.011561
327.000000,0.007703,0.006254,0.004633,0.004143,0.026421
328.000000,0.004832,0.004476,0.003720,0.003717,-0.015344
329.000000,-0.006770,0.000943,0.001180,0.002654,-0.043855
330.000000,-0.010856,-0.000580,-0.000264,0.001773,-0.009944
331.000000,-0.005388,-0.000341,0.000779,0.002071,0.015783
332.000000,-0.013951,-0.003124,-0.000498,0.001184,-0.016395
333.000000,-0.012686,-0.003927,-0.001014,0.001174,-0.009020
334.000000,-0.004039,-0.005405,-0.001816,0.000659,-0.000618
335.000000,0.002412,-0.004222,-0.000261,0.001172,0.022313
336.000000,0.007893,0.001253,0.002829,0.002969,0.043185
337.000000,0.013398,-0.000276,0.002989,0.002997,0.011131
338.000000,0.009275,-0.001706,0.001385,0.001912,-0.029636
339.000000,0.010477,0.003219,0.002081,0.001860,0.005392
340.000000,0.008656,0.005534,0.002477,0.001668,0.013209
341.000000,0.002950,0.005422,0.002540,0.002326,0.014655
342.000000,-0.001706,0.005846,0.001361,0.001617,-0.012149
343.000000,0.001976,0.005625,0.000849,0.001199,-0.011227
344.000000,0.000430,0.005453,0.000024,0.000607,-0.002339
345.000000,-0.002603,0.003027,-0.000598,0.000835,-0.001953
346.000000,-0.006337,-0.001693,-0.000220,0.001321,-0.004016
347.000000,0.000500,-0.000603,-0.000440,0.001791,0.022034
348.000000,0.001822,0.001899,0.000097,0.001556,-0.004619
349.000000,0.002848,0.001639,0.002429,0.001934,0.002793
350.000000,0.004695,0.001046,0.003290,0.002000,0.007283
351.000000,0.006375,0.000019,0.002720,0.001700,0.004383
352.000000,0.004762,0.002631,0.004239,0.001784,0.013972
353.000000,0.004048,0.002935,0.004280,0.001544,-0.008189
354.000000,0.002694,0.002771,0.004112,0.000940,-0.003978
355.000000,0.003652,0.004174,0.003600,0.000993,0.012073
356.000000,0.002231,0.004303,0.001305,0.001287,-0.002723
357.000000,0.002293,0.003528,0.001462,0.000883,0.014281
358.000000,0.006546,0.005297,0.003598,0.001830,0.013074
359.000000,0.007689,0.005191,0.003415,0.003350,0.001737
360.000000,0.003771,0.003711,0.002379,0.003431,-0.007516
361.000000,0.007980,0.005106,0.002562,0.003515,0.018324
362.000000,0.006797,0.004545,0.003588,0.004341,0.008366
363.000000,0.008419,0.007482,0.005209,0.005348,0.021184
364.000000,0.008089,0.007889,0.005330,0.005371,0.000088
365.000000,0.006695,0.005233,0.004703,0.004144,-0.014487
366.000000,0.005066,0.006523,0.005413,0.003044,0.010180
367.000000,0.007335,0.007066,0.005297,0.003330,0.019709
368.000000,0.006828,0.007624,0.006460,0.004940,0.018651
369.000000,0.005842,0.006966,0.006078,0.004599,-0.004843
370.000000,0.001118,0.003907,0.003809,0.002888,-0.038107
371.000000,0.004321,0.004694,0.004900,0.003273,0.026198
372.000000,-0.000657,0.003339,0.003942,0.003505,-0.005185
373.000000,-0.003661,0.001584,0.004533,0.004000,0.003632
374.000000,-0.000939,0.002452,0.005170,0.004370,0.008767
375.000000,0.006151,0.003635,0.004434,0.004347,-0.002656
376.000000,0.000362,0.002342,0.004432,0.004389,-0.002749
377.000000,0.002291,0.000817,0.003942,0.003804,0.004464
378.000000,-0.000190,-0.001926,0.002849,0.003665,-0.008775
379.000000,-0.001512,-0.001225,0.002870,0.003644,0.002158
380.000000,0.000017,0.003084,0.003495,0.003567,0.004988
381.000000,-0.002197,-0.000918,0.001888,0.002961,-0.013822
382.000000,-0.005382,-0.001545,0.000897,0.002113,-0.011461
383.000000,-0.000069,-0.000130,0.000727,0.002979,0.017791
384.000000,-0.004429,-0.002970,-0.000259,0.002457,-0.019640
385.000000,0.000924,0.000471,0.002053,0.003113,0.031754
386.000000,0.001024,-0.000587,0.000877,0.002759,-0.013325
387.000000,0.004162,-0.000610,0.000104,0.002424,0.004232
388.000000,0.000794,0.000362,-0.000782,0.002020,0.000947
389.000000,0.005409,0.000490,-0.000368,0.002077,0.003438
390.000000,-0.001974,-0.000525,0.001280,0.002155,-0.005161
391.000000,0.001122,0.001073,0.000078,0.001616,0.002154
392.000000,-0.002114,0.001024,-0.000261,0.000939,-0.011947
393.000000,-0.004810,-0.002008,-0.001069,-0.000185,-0.012532
394.000000,-0.004004,0.000703,-0.001134,0.000061,0.007468
395.000000,-0.004042,-0.003008,-0.001269,0.000366,-0.005354
396.000000,-0.011987,-0.005433,-0.003010,-0.001226,-0.037571
397.000000,-0.012173,-0.007143,-0.003877,-0.002312,-0.012875
398.000000,-0.002806,-0.003808,-0.001723,-0.001790,0.034299
399.000000,-0.010071,-0.007037,-0.003274,-0.002591,-0.028853
400.000000,-0.012698,-0.008370,-0.004447,-0.001937,-0.018489
401.000000,-0.006274,-0.009131,-0.004029,-0.002992,-0.005454
402.000000,-0.000482,-0.006327,-0.002652,-0.002283,0.016087
403.000000,-0.006379,-0.004593,-0.003300,-0.002243,0.004813
404.000000,-0.003604,-0.006837,-0.003067,-0.003035,-0.014978
405.000000,-0.000545,-0.006621,-0.004815,-0.003053,-0.003192
406.000000,-0.004057,-0.005166,-0.005299,-0.003728,-0.023018
407.000000,-0.003161,-0.001821,-0.004482,-0.003192,0.020570
408.000000,-0.005372,-0.005875,-0.004842,-0.003107,-0.006241
409.000000,0.000636,-0.001484,-0.004261,-0.002677,0.015062
410.000000,0.001741,0.000598,-0.003886,-0.002765,0.002333
411.000000,0.006177,0.001060,-0.004035,-0.002333,-0.000839
412.000000,0.000339,-0.001411,-0.003869,-0.002238,-0.008620
413.000000,0.004706,-0.000333,-0.002463,-0.002311,0.015592
414.000000,0.004380,0.002508,-0.002165,-0.001209,0.013435
415.000000,0.002464,0.002103,-0.002259,-0.002509,-0.007247
416.000000,0.002227,0.004202,-0.000482,-0.002132,-0.002028
417.000000,0.006681,0.003510,0.000844,-0.001818,0.013653
418.000000,-0.000427,0.002140,-0.001868,-0.002515,-0.019946
419.000000,-0.003058,0.000661,-0.000411,-0.002620,0.000278
420.000000,-0.007505,-0.002520,-0.000961,-0.003431,-0.029482
421.000000,-0.006013,-0.001893,-0.000417,-0.003321,0.005434
422.000000,-0.016043,-0.004681,-0.003046,-0.004140,-0.036501
423.000000,-0.012251,-0.006339,-0.003336,-0.003755,-0.000987
424.000000,-0.010930,-0.006994,-0.002243,-0.003774,0.006886
425.000000,-0.002986,-0.005245,-0.001571,-0.003255,0.010240
426.000000,-0.007478,-0.006745,-0.001272,-0.002570,-0.017028
427.000000,0.000984,-0.007530,-0.002010,-0.001947,0.005806
428.000000,0.007574,-0.002339,-0.000100,-0.002025,0.031963
429.000000,0.006139,-0.002395,-0.000867,-0.001073,-0.000285
430.000000,0.003692,0.000353,-0.001084,-0.000523,-0.001998
431.000000,0.005932,-0.000773,-0.001333,-0.000535,-0.005828
432.000000,-0.000334,0.000325,-0.002178,-0.001922,-0.025522
433.000000,-0.008504,-0.000465,-0.003402,-0.002379,-0.008885
434.000000,-0.005885,0.000127,-0.003433,-0.001453,0.012809
435.000000,-0.009001,-0.002655,-0.003950,-0.001932,-0.017581
436.000000,-0.004829,0.000551,-0.003097,-0.000664,0.015032
437.000000,0.000255,-0.000039,-0.003785,-0.001353,-0.000098
438.000000,-0.003643,-0.006073,-0.004206,-0.002091,-0.028376
439.000000,-0.010636,-0.008260,-0.005328,-0.003332,-0.022158
440.000000,-0.006687,-0.007844,-0.003745,-0.003337,0.002166
441.000000,-0.010706,-0.007767,-0.004270,-0.003478,-0.005061
442.000000,-0.013775,-0.006760,-0.003217,-0.003705,-0.015444
443.000000,-0.011237,-0.007440,-0.003952,-0.004748,-0.015687
444.000000,-0.004786,-0.007711,-0.003792,-0.004859,0.010097
445.000000,-0.010795,-0.008741,-0.005698,-0.005547,-0.027881
446.000000,-0.014470,-0.012588,-0.006018,-0.006261,-0.023435
447.000000,-0.025374,-0.019574,-0.009807,-0.009048,-0.069963
448.000000,-0.022045,-0.016641,-0.011357,-0.008351,0.000955
449.000000,-0.013994,-0.009390,-0.008825,-0.006682,0.050357
450.000000,-0.001506,-0.006151,-0.006997,-0.004547,0.034555
451.000000,0.003071,-0.005699,-0.006733,-0.004747,-0.000548
452.000000,0.020412,-0.002481,-0.004620,-0.002972,0.016741
453.000000,0.027150,0.002552,-0.002444,-0.001784,0.034645
454.000000,0.008656,-0.002669,-0.005190,-0.003417,-0.042111
455.000000,0.004614,0.001554,-0.003594,-0.003281,0.014342
456.000000,0.001920,0.002496,-0.005046,-0.003180,-0.014016
457.000000,-0.009561,0.005426,-0.007074,-0.004729,-0.040664
458.000000,-0.009664,0.008743,-0.003949,-0.004657,0.034128
459.000000,0.002289,0.005473,-0.001958,-0.004059,0.017657
460.000000,-0.002543,0.001035,-0.002558,-0.004320,-0.009819
461.000000,0.006306,0.004113,-0.000793,-0.003118,0.030226
462.000000,0.010765,0.000602,-0.000939,-0.002880,-0.018369
463.000000,-0.002685,-0.006174,-0.001811,-0.003687,-0.033118
464.000000,0.006279,0.004284,0.000808,-0.002032,0.062473
465.000000,0.014128,0.005793,0.003673,-0.000465,0.029427
466.000000,0.009251,0.007779,0.005137,-0.000771,0.005843
467.000000,0.010804,0.010785,0.008105,-0.001121,-0.010603
468.000000,0.017935,0.007625,0.008184,-0.000091,0.002535
469.000000,0.003016,0.004647,0.005060,0.000243,-0.012124
470.000000,-0.006406,0.003861,0.002448,-0.000418,-0.017683
471.000000,-0.002812,0.003220,0.003666,0.000544,0.023814
472.000000,-0.004414,0.003195,0.001899,0.000439,-0.018611
473.000000,-0.002199,0.007868,0.000847,0.001415,0.013607
474.000000,0.001572,0.002294,0.003289,0.001303,0.006735
475.000000,0.007354,0.000474,0.003133,0.002607,0.011225
476.000000,0.007164,0.002176,0.004977,0.004150,0.022866
477.000000,0.006555,0.001070,0.005927,0.005760,-0.021660
478.000000,-0.001913,-0.002056,0.002784,0.004771,-0.028734
479.000000,-0.008858,-0.003643,0.000502,0.002159,-0.027988
480.000000,-0.027374,-0.010010,-0.003075,-0.001705,-0.081355
481.000000,-0.030752,-0.011794,-0.004287,-0.001487,0.005978
482.000000,-0.019525,-0.006485,-0.001645,-0.000896,0.034475
483.000000,-0.010483,-0.006198,0.000835,-0.001502,0.016475
484.000000,-0.002288,-0.005573,-0.001639,0.000335,0.012987
485.000000,0.009085,-0.009145,-0.004335,-0.000959,-0.024491
486.000000,0.002166,-0.014293,-0.006058,-0.001446,-0.028615
487.000000,-0.002563,-0.011044,-0.004987,0.000270,0.010827
488.000000,-0.011224,-0.010854,-0.006455,-0.001762,-0.026829
489.000000,-0.013660,-0.007974,-0.005808,-0.002323,0.000806
490.000000,-0.009894,-0.000404,-0.005207,-0.002185,-0.005657
491.000000,-0.006570,-0.002202,-0.006998,-0.003592,-0.011997
492.000000,-0.008431,-0.005497,-0.005991,-0.002929,0.001522
493.000000,0.009781,-0.000722,-0.003460,0.000316,0.064231
494.000000,0.012474,-0.000593,-0.003083,-0.001291,0.014271
495.000000,0.019089,0.004598,-0.002273,-0.001358,0.027419
496.000000,0.021573,0.007501,-0.003396,-0.001538,0.000421
497.000000,0.024089,0.007829,-0.001608,-0.000715,0.014102
498.000000,0.006286,0.008034,-0.001410,-0.001625,-0.024783
499.000000,0.002942,0.007708,-0.000133,-0.001303,-0.002449
500.000000,-0.001458,0.008816,0.004206,-0.000533,0.005421
501.000000,-0.005028,0.008273,0.003035,-0.001908,-0.017431
502.000000,-0.009212,0.007438,0.000971,-0.001515,-0.006819
503.000000,-0.003887,0.001200,0.000239,-0.001907,0.001845
504.000000,-0.015831,-0.006444,-0.003519,-0.004204,-0.062171
505.000000,-0.022697,-0.012077,-0.003740,-0.005541,-0.028909
506.000000,-0.020474,-0.012751,-0.002625,-0.006514,-0.006314
507.000000,-0.011604,-0.010408,-0.001290,-0.004541,0.037528
508.000000,-0.010642,-0.007265,0.000385,-0.003362,0.006654
509.000000,-0.005071,-0.010451,-0.001371,-0.003572,-0.034312
510.000000,0.002009,-0.010344,-0.000764,-0.000644,0.006487
511.000000,0.009476,-0.005499,0.001387,0.000190,0.031021
512.000000,-0.000807,-0.006206,0.000616,-0.001422,-0.013887
513.000000,0.006413,-0.002115,-0.000457,-0.000545,0.042757
514.000000,0.011094,0.003011,-0.001717,-0.001342,-0.010911
515.000000,0.012487,0.007248,-0.002415,-0.000077,0.013454
516.000000,0.005885,0.007680,-0.002535,0.000810,-0.001990
517.000000,0.009612,0.004402,-0.003003,0.000608,0.004747
518.000000,0.004424,0.005419,-0.000923,0.002063,0.016820
519.000000,0.008052,0.009573,-0.000439,0.002277,0.007230
520.000000,-0.005464,0.003512,-0.003416,0.000661,-0.054127
521.000000,-0.003235,0.001325,-0.002087,0.001366,0.009152
522.000000,-0.003915,0.002848,-0.001679,0.001360,0.001349
523.000000,0.000411,0.002418,0.000152,0.000501,0.038451
524.000000,0.006995,0.007523,0.005267,0.001363,0.040147
525.000000,0.015480,0.005008,0.006128,0.000060,-0.011697
526.000000,0.015740,0.006252,0.006966,0.000394,0.010451
527.000000,0.014637,0.005361,0.004882,-0.000215,-0.004167
528.000000,0.007280,0.003846,0.004632,0.000667,0.001669
529.000000,-0.002192,0.002401,0.005987,0.000508,-0.007217
530.000000,-0.004225,0.005628,0.004570,-0.000402,-0.021862
531.000000,-0.002911,0.006414,0.003870,0.000747,0.017022
532.000000,0.002346,0.008491,0.005670,0.001711,0.022116
533.000000,0.001122,0.004201,0.003310,0.001502,-0.004447
534.000000,0.000105,-0.001044,0.003240,0.003164,-0.012305
535.000000,0.001283,-0.001471,0.001769,0.003595,-0.015970
536.000000,-0.008006,-0.005459,0.000397,0.002825,-0.029427
537.000000,-0.010572,-0.004113,0.000624,0.001883,0.009289
538.000000,-0.010380,-0.004629,-0.000391,0.001545,-0.003487
539.000000,-0.004843,-0.002369,0.000016,0.003202,0.015382
540.000000,-0.007982,-0.003349,0.001139,0.001930,-0.031669
541.000000,-0.003009,-0.005508,0.000453,0.000744,-0.004559
542.000000,-0.006343,-0.008458,0.000017,0.000961,-0.007383
543.000000,-0.002726,-0.006553,-0.001176,0.000022,0.014602
544.000000,-0.005537,-0.005190,-0.003117,0.000430,0.001327
545.000000,-0.001202,-0.004592,-0.003032,-0.000352,-0.009996
546.000000,-0.002580,-0.002795,-0.004127,-0.000667,-0.011451
547.000000,-0.003032,-0.004688,-0.004400,-0.001147,-0.009643
548.000000,-0.009472,-0.006099,-0.005364,-0.002294,-0.017596
549.000000,-0.008903,-0.007220,-0.004794,-0.002396,0.004168
550.000000,-0.008855,-0.005028,-0.004189,-0.000917,-0.009753
551.000000,-0.007313,-0.004946,-0.005227,-0.001347,-0.003741
552.000000,0.000410,-0.001311,-0.004884,-0.000426,0.028971
553.000000,0.001410,-0.004031,-0.005292,-0.002127,-0.012593
554.000000,0.009279,0.000188,-0.002501,-0.002015,0.043510
555.000000,0.008721,-0.000067,-0.002330,-0.002043,-0.012542
556.000000,0.012022,0.002354,-0.000220,-0.001966,0.012763
557.000000,0.002487,0.001449,-0.001620,-0.002451,-0.018700
558.000000,0.004646,0.003028,-0.001535,-0.002566,-0.001799
559.000000,-0.001550,0.003864,-0.001678,-0.001908,0.012528
560.000000,0.004047,0.006384,0.000678,-0.000665,0.015443
561.000000,-0.000265,0.005878,0.000466,-0.001525,-0.008795
562.000000,0.006935,0.004711,0.001700,-0.001686,0.017297
563.000000,0.006315,0.005481,0.000725,-0.001701,-0.004896
564.000000,0.002782,0.000616,0.000402,-0.001462,-0.005139
565.000000,0.002934,0.003490,0.001712,-0.000390,0.016202
566.000000,0.009299,0.004517,0.003436,0.001359,0.023031
567.000000,0.004571,0.005753,0.003601,0.000838,-0.006345
568.000000,0.005061,0.005688,0.004358,0.000873,-0.002443
569.000000,0.009610,0.006196,0.005030,0.000947,0.017603
570.000000,0.008200,0.005567,0.005975,0.002307,0.009152
571.000000,-0.000380,0.004460,0.005169,0.001797,-0.019867
572.000000,0.004593,0.004582,0.004646,0.002661,0.018520
573.000000,0.008168,0.006615,0.006048,0.002688,0.015431
574.000000,0.004729,0.007169,0.003893,0.002658,0.000408
575.000000,0.001321,0.004760,0.004125,0.002728,-0.007888
576.000000,0.006340,0.002980,0.003749,0.003284,0.005232
577.000000,0.000269,0.002431,0.004092,0.003211,-0.011836
578.000000,-0.000532,0.003818,0.004753,0.004178,0.011426
579.000000,0.000550,0.002640,0.004418,0.004233,0.005817
580.000000,-0.001052,0.000134,0.002851,0.004028,-0.015899
581.000000,-0.000779,0.002781,0.003620,0.004373,0.006595
582.000000,0.003835,0.002052,0.003317,0.003782,0.011235
583.000000,0.004133,0.001801,0.004208,0.004632,0.012916
584.000000,0.001379,0.000965,0.004067,0.002917,-0.007952
585.000000,0.004458,0.001703,0.003232,0.003318,-0.000505
586.000000,0.004127,0.001674,0.002327,0.003057,0.004942
587.000000,-0.008125,-0.002145,0.000143,0.002013,-0.050028
588.000000,-0.009570,-0.002718,0.000550,0.002263,0.005696
589.000000,-0.011331,-0.004976,-0.001168,0.001287,-0.016757
590.000000,-0.011230,-0.003386,-0.001626,0.000772,0.000000
591.000000,-0.016302,-0.006088,-0.001653,0.000384,-0.020421
592.000000,-0.002405,-0.005265,-0.001607,0.000456,0.019458
593.000000,-0.007457,-0.008514,-0.003356,-0.000033,-0.019567
594.000000,-0.006015,-0.008673,-0.003854,-0.000180,-0.009543
595.000000,-0.006589,-0.008909,-0.003603,-0.000815,-0.002870
596.000000,0.000414,-0.007944,-0.003135,-0.001097,0.014594
597.000000,-0.006861,-0.004633,-0.003389,-0.001449,-0.016918
598.000000,-0.002505,-0.004981,-0.003850,-0.001294,0.002213
599.000000,0.001668,-0.002173,-0.003574,-0.001503,0.011322
600.000000,-0.000465,-0.003527,-0.003456,-0.002259,-0.013535
601.000000,-0.005858,-0.002722,-0.004405,-0.002010,-0.012374
602.000000,-0.002812,-0.004836,-0.005051,-0.002683,-0.001684
603.000000,-0.002917,-0.002711,-0.005612,-0.003141,0.001684
604.000000,-0.006217,-0.002274,-0.005473,-0.003327,-0.005173
605.000000,-0.003352,-0.001908,-0.005409,-0.003038,0.000789
606.000000,0.001386,-0.002236,-0.005090,-0.002835,0.011315
607.000000,0.000022,-0.001395,-0.003014,-0.002724,-0.008502
608.000000,-0.004011,-0.003464,-0.004223,-0.003721,-0.018482
609.000000,0.002220,-0.001998,-0.002086,-0.003049,0.025981
610.000000,0.000787,-0.001282,-0.002404,-0.002732,-0.006376
611.000000,-0.001521,-0.000067,-0.001395,-0.002959,-0.000224
612.000000,0.003121,0.001572,-0.001632,-0.002843,0.014708
613.000000,0.007348,0.001669,-0.000521,-0.003185,0.002651
614.000000,-0.000335,0.000943,-0.000666,-0.003335,-0.012432
615.000000,0.000247,0.000517,-0.000696,-0.003433,-0.003469
616.000000,0.002210,0.000345,-0.000946,-0.003278,0.009593
617.000000,-0.003099,0.000011,-0.000692,-0.002005,-0.011837
618.000000,-0.004101,0.001623,-0.000920,-0.002274,-0.002362
619.000000,-0.002835,-0.001585,-0.001791,-0.001919,-0.006099
620.000000,-0.002572,-0.001163,-0.001222,-0.001991,-0.002155
621.000000,-0.002885,-0.000337,-0.000202,-0.001042,0.008029
622.000000,-0.001534,-0.002316,-0.000372,-0.001860,-0.005081
623.000000,-0.002630,-0.003365,-0.000848,-0.001469,-0.007841
624.000000,-0.000476,-0.001656,-0.000356,-0.000996,0.004667
625.000000,-0.004199,-0.003386,-0.001434,-0.001592,-0.020768
626.000000,-0.002813,-0.002849,-0.001252,-0.001580,0.014960
627.000000,-0.005905,-0.003719,-0.001854,-0.001701,-0.020541
628.000000,-0.004570,-0.003600,-0.000988,-0.001814,-0.001167
629.000000,-0.006862,-0.003669,-0.002627,-0.002417,-0.006793
630.000000,0.001087,-0.001556,-0.001359,-0.001334,0.018975
631.000000,-0.007115,-0.004964,-0.002651,-0.001790,-0.026051
632.000000,-0.001099,-0.003502,-0.002909,-0.001415,0.009541
633.000000,-0.002656,-0.003613,-0.003489,-0.001770,-0.008950
634.000000,-0.002079,-0.004470,-0.003063,-0.001728,-0.003911
635.000000,-0.003466,-0.001190,-0.002288,-0.001353,0.012040
636.000000,-0.002957,-0.005036,-0.003943,-0.002513,-0.023505
637.000000,-0.006918,-0.004008,-0.003864,-0.002572,-0.010263
638.000000,-0.009794,-0.006225,-0.004912,-0.002734,-0.023328
639.000000,-0.015501,-0.008790,-0.006229,-0.004681,-0.032446
640.000000,-0.019454,-0.011460,-0.006508,-0.004726,-0.007729
641.000000,-0.017986,-0.010472,-0.007718,-0.005258,-0.016165
642.000000,-0.015330,-0.011124,-0.007313,-0.005647,0.003018
643.000000,-0.013728,-0.011761,-0.007687,-0.006246,-0.015316
644.000000,-0.012550,-0.014025,-0.009248,-0.006717,-0.026560
645.000000,-0.001245,-0.010350,-0.005770,-0.004975,0.048797
646.000000,0.004291,-0.006848,-0.005942,-0.004911,0.011514
647.000000,0.005735,-0.004798,-0.004403,-0.004175,0.010238
648.000000,0.005330,-0.004199,-0.005212,-0.004674,-0.017338
649.000000,0.008689,-0.001930,-0.005360,-0.004796,-0.009764
650.000000,-0.000286,-0.000766,-0.006113,-0.004594,0.003917
651.000000,-0.004291,0.000000,-0.005236,-0.005145,-0.008506
652.000000,-0.002202,0.001766,-0.004679,-0.004287,0.020681
653.000000,-0.009091,-0.001880,-0.006820,-0.005751,-0.051781
654.000000,-0.000445,0.004122,-0.004952,-0.004791,0.033463
655.000000,0.001454,0.000584,-0.004883,-0.003652,0.013414
656.000000,0.009847,0.002778,-0.002035,-0.003035,0.033457
657.000000,0.005084,0.001441,-0.001678,-0.002455,-0.003133
658.000000,0.016067,0.003488,-0.000355,-0.002312,0.003133
659.000000,0.009574,0.004565,0.001317,-0.002052,0.001000
660.000000,0.007889,0.004672,0.001953,-0.002518,0.004987
661.000000,-0.007287,0.001280,0.000640,-0.003064,-0.042424
662.000000,-0.007545,-0.001231,0.000268,-0.003529,-0.004421
663.000000,-0.013106,0.001480,-0.000200,-0.004054,-0.024673
664.000000,-0.028857,-0.009641,-0.002760,-0.006515,-0.077752
665.000000,-0.032470,-0.012291,-0.005853,-0.007352,-0.013080
666.000000,-0.016435,-0.011861,-0.004542,-0.005310,0.037751
667.000000,-0.002465,-0.005005,-0.001782,-0.002787,0.065427
668.000000,0.006441,-0.003333,0.000078,-0.001348,0.019857
669.000000,0.024562,-0.002148,0.001208,0.000162,0.012852
670.000000,0.021242,-0.005614,-0.000471,-0.000570,-0.029679
671.000000,0.018089,0.000827,0.001053,0.000702,0.021987
672.000000,0.004333,0.000934,-0.000148,0.000490,-0.003351
673.000000,-0.001089,0.002676,0.002078,0.000759,-0.007257
674.000000,-0.001667,0.011447,0.000903,0.001976,0.009964
675.000000,0.002380,0.011811,-0.000240,0.000035,-0.009444
676.000000,0.000899,0.009494,-0.001184,0.000137,0.014582
677.000000,-0.000776,0.001779,-0.001613,-0.000595,-0.011726
678.000000,-0.001200,-0.001145,-0.002239,-0.000330,-0.009376
679.000000,-0.001059,-0.001363,-0.001755,0.000351,0.010672
680.000000,0.007676,0.005028,-0.000293,0.001362,0.034229
681.000000,0.004058,0.002478,0.001653,0.001528,-0.003509
682.000000,-0.002321,-0.001548,-0.000307,-0.000615,-0.043619
683.000000,0.000235,-0.000482,0.001097,0.001225,0.003404
684.000000,-0.005326,-0.003192,0.004127,-0.000462,-0.017135
685.000000,-0.018054,-0.005189,0.003311,-0.001890,-0.029410
686.000000,-0.016751,-0.006346,0.001574,-0.002905,0.003008
687.000000,-0.009314,-0.005817,-0.002019,-0.003015,-0.006436
688.000000,-0.019447,-0.009606,-0.005375,-0.004694,-0.047260
689.000000,-0.014013,-0.009670,-0.005516,-0.004393,0.010032
690.000000,-0.000658,-0.009356,-0.002164,-0.003314,0.037365
691.000000,0.000899,-0.007926,-0.002724,-0.001540,0.010793
692.000000,0.011401,0.001044,-0.000252,0.000143,0.046075
693.000000,0.029960,0.005257,0.002387,0.002483,0.045534
694.000000,0.033312,0.009649,0.003229,0.005968,0.026792
695.000000,0.028072,0.013707,0.004259,0.006776,0.011164
696.000000,0.033572,0.017235,0.005445,0.006794,0.038293
697.000000,0.024953,0.018177,0.006180,0.004713,0.002983
698.000000,0.012915,0.021438,0.005916,0.003562,-0.014654
699.000000,0.005806,0.019559,0.004945,0.002842,-0.008756
700.000000,0.004742,0.016407,0.003525,0.004026,0.005846
701.000000,0.000230,0.016901,0.004487,0.003818,0.015730
702.000000,0.000458,0.012705,0.006875,0.004067,0.004123
703.000000,-0.002857,0.005029,0.005143,0.003268,-0.031225
704.000000,-0.000964,0.002421,0.006035,0.002959,0.000707
705.000000,-0.004718,0.000012,0.006859,0.002843,-0.012926
706.000000,-0.003099,-0.001435,0.007900,0.003151,0.023825
707.000000,-0.004788,-0.002165,0.008006,0.003398,-0.004322
708.000000,-0.003377,-0.003117,0.009160,0.002905,-0.024169
709.000000,-0.005180,-0.003072,0.008243,0.002272,-0.008309
710.000000,0.002397,-0.001161,0.007623,0.001963,0.024958
711.000000,-0.000654,-0.001877,0.007512,0.002366,0.008573
712.000000,0.000981,-0.001904,0.005401,0.003948,0.003851
713.000000,0.006327,0.001475,0.003252,0.003920,0.002559
714.000000,0.013444,0.004132,0.003276,0.005401,0.027277
715.000000,0.003924,0.003160,0.001586,0.005626,-0.022640
716.000000,0.002209,0.000778,-0.000329,0.005526,0.000000
717.000000,-0.001356,-0.000187,-0.001176,0.005275,-0.013975
718.000000,-0.001633,0.002347,-0.000385,0.006889,0.001172
719.000000,-0.004274,0.004585,0.000756,0.007024,0.014074
720.000000,-0.007422,-0.001749,-0.001455,0.004499,-0.038380
721.000000,-0.011373,-0.004582,-0.003229,0.003481,-0.019757
722.000000,-0.007212,-0.004284,-0.003094,0.002173,0.006832
723.000000,-0.001363,-0.001498,-0.000012,0.001669,0.030414
724.000000,-0.008494,-0.006384,-0.001126,0.000056,-0.021578
725.000000,0.004345,-0.001538,0.000811,0.000545,0.025815
726.000000,0.002337,-0.004518,-0.001870,-0.001725,-0.029800
727.000000,0.000922,-0.003145,-0.001666,-0.001833,-0.000242
728.000000,-0.005306,-0.003335,-0.000494,-0.001368,-0.000726
729.000000,0.005139,-0.001677,0.001454,-0.000055,0.030651
730.000000,-0.003842,0.000252,-0.000749,-0.000886,-0.019091
731.000000,-0.001530,0.000403,-0.002089,-0.002018,-0.018243
732.000000,0.001927,0.001424,-0.001430,-0.001588,0.017045
733.000000,0.003553,-0.000877,-0.001187,-0.000300,0.007404
734.000000,-0.010316,-0.002588,-0.004486,-0.001613,-0.038693
735.000000,-0.006176,-0.005009,-0.003274,-0.001129,0.001606
736.000000,-0.003766,-0.002648,-0.003583,-0.002130,-0.006193
737.000000,-0.018156,-0.008114,-0.005630,-0.003816,-0.054903
738.000000,-0.017236,-0.006841,-0.005088,-0.002610,0.012003
739.000000,-0.006230,-0.008273,-0.004975,-0.001788,0.016336
740.000000,-0.007062,-0.006619,-0.003184,-0.002705,-0.002555
741.000000,-0.014423,-0.009094,-0.004346,-0.004424,-0.042993
742.000000,0.001751,-0.008202,-0.003389,-0.003687,0.025965
743.000000,0.000492,-0.008372,-0.004624,-0.003582,0.005708
744.000000,-0.006694,-0.006462,-0.004525,-0.005145,-0.019596
745.000000,-0.012891,-0.009977,-0.007493,-0.005508,-0.033538
746.000000,-0.009460,-0.011942,-0.007295,-0.006369,-0.025843
747.000000,-0.017985,-0.008117,-0.008116,-0.006459,-0.016658
748.000000,-0.020383,-0.009946,-0.008393,-0.006707,-0.006283
749.000000,-0.005646,-0.006170,-0.007221,-0.005373,0.054090
750.000000,0.000327,-0.006282,-0.006450,-0.004216,-0.003671
751.000000,-0.002649,-0.006055,-0.007575,-0.004915,-0.040726
752.000000,0.002377,-0.007804,-0.008003,-0.004861,0.008476
753.000000,0.002279,-0.009052,-0.008712,-0.006100,-0.006775
754.000000,-0.008030,-0.006838,-0.006650,-0.005296,0.002546
755.000000,-0.010457,-0.005065,-0.007521,-0.006683,-0.015804
756.000000,-0.001024,-0.001837,-0.006889,-0.005475,0.006437
757.000000,-0.010898,-0.004260,-0.006189,-0.006831,-0.040893
758.000000,-0.015147,-0.006434,-0.008190,-0.007740,-0.028018
759.000000,-0.015472,-0.011751,-0.008961,-0.008731,0.000916
760.000000,-0.018040,-0.014248,-0.010265,-0.009050,-0.028642
761.000000,-0.021697,-0.011361,-0.008708,-0.008837,-0.011849
762.000000,-0.009584,-0.010241,-0.009022,-0.008749,0.019672
763.000000,-0.000612,-0.007879,-0.008466,-0.008434,0.016843
764.000000,-0.007939,-0.011706,-0.009272,-0.008335,-0.035721
765.000000,-0.008634,-0.013337,-0.009201,-0.009459,-0.032112
766.000000,-0.008705,-0.015201,-0.008519,-0.009660,-0.012209
767.000000,-0.001313,-0.005449,-0.004855,-0.005942,0.056633
768.000000,0.002316,0.000852,-0.002791,-0.005176,0.034989
769.000000,-0.004432,-0.006186,-0.008968,-0.008036,-0.069458
770.000000,0.015913,0.003640,-0.005304,-0.005630,0.069610
771.000000,0.018476,0.004885,-0.003238,-0.004177,0.000606
772.000000,0.014752,0.006719,-0.001761,-0.003775,0.038015
773.000000,0.014601,0.008458,0.000289,-0.002824,0.034232
774.000000,0.022982,0.009275,-0.001215,-0.003090,-0.027552
775.000000,0.003394,0.009653,-0.001842,-0.002916,-0.028332
776.000000,0.012098,0.015287,0.000043,-0.000584,0.044128
777.000000,-0.000554,0.007099,0.000825,-0.000870,-0.025248
778.000000,-0.011475,0.001563,0.001207,-0.001340,-0.020370
779.000000,-0.001920,0.010531,0.002173,-0.002469,0.020224
780.000000,-0.004731,-0.000669,0.001485,-0.003759,-0.042388
781.000000,-0.012948,-0.000425,0.002230,-0.002300,0.003045
782.000000,-0.008598,-0.004576,0.001071,-0.002699,-0.003502
783.000000,0.001900,-0.004788,0.001835,-0.001403,0.032120
784.000000,-0.001585,-0.001752,0.003762,-0.001394,0.002803
785.000000,0.015344,0.005306,0.007480,0.000541,0.042253
786.000000,0.010857,-0.001045,0.007121,-0.000320,-0.019390
787.000000,0.012276,0.001839,0.004469,0.001163,0.003593
788.000000,0.012898,0.007399,0.004481,0.003271,0.035235
789.000000,0.000383,-0.000601,0.004965,0.001248,-0.059777
790.000000,-0.003705,0.005819,0.002575,0.002930,0.021813
791.000000,-0.002783,0.004037,0.001806,0.002832,-0.014781
792.000000,-0.006443,0.002916,-0.000830,0.001686,-0.014706
793.000000,-0.021840,-0.004471,-0.004629,-0.000267,-0.041748
794.000000,-0.009021,-0.004319,-0.003036,0.001068,0.004316
795.000000,-0.007384,-0.005545,-0.000119,0.003138,0.029998
796.000000,0.002178,-0.000303,-0.000674,0.004646,0.033031
797.000000,0.011262,0.002409,0.002124,0.003782,0.030715
798.000000,0.030671,0.004416,0.005907,0.004459,0.055297
799.000000,0.016354,0.003666,0.001533,0.004532,-0.067272
800.000000,0.015116,0.003866,0.004842,0.003005,0.023807
801.000000,0.008537,0.005358,0.004697,0.002990,0.000138
802.000000,0.010289,0.010776,0.006846,0.003039,0.039476
803.000000,-0.001837,0.014417,0.004973,0.001720,-0.005335
804.000000,0.008463,0.012409,0.004045,0.002112,-0.015770
805.000000,0.007550,0.011333,0.002894,0.003698,0.019240
806.000000,0.011376,0.009957,0.004827,0.002869,0.019269
807.000000,0.001194,0.005742,0.004075,0.003330,-0.011438
808.000000,0.003131,0.000647,0.002531,0.004154,0.004354
809.000000,0.006127,0.007295,0.005481,0.003454,-0.000790
810.000000,-0.001874,0.002838,0.003352,0.004174,-0.020768
811.000000,-0.005836,0.002770,0.004064,0.004055,-0.000538
812.000000,-0.002930,-0.000868,0.004954,0.004275,0.003091
813.000000,-0.001347,0.000892,0.007655,0.003613,0.012268
814.000000,-0.005991,0.000068,0.006238,0.002719,-0.024010
815.000000,-0.004792,-0.003333,0.004000,0.000818,-0.014771
816.000000,-0.006178,-0.006007,0.001975,0.001216,-0.007468
817.000000,-0.011658,-0.007294,-0.000776,0.000286,-0.024307
818.000000,-0.013458,-0.007403,-0.003378,-0.000780,0.003266
819.000000,-0.006737,-0.006364,0.000466,0.001532,0.009594
820.000000,-0.003138,-0.003965,-0.000564,0.000913,0.003224
821.000000,0.003931,-0.001123,0.000823,0.002335,0.027879
822.000000,0.010257,-0.000700,-0.000784,0.003069,0.007323
823.000000,0.018845,0.002694,0.001793,0.006001,0.046207
824.000000,0.017622,0.005442,0.002755,0.005973,0.003477
825.000000,0.017054,0.006958,0.001812,0.004986,0.000386
826.000000,0.006007,0.004969,-0.000519,0.002973,-0.027360
827.000000,0.009061,0.009659,0.001183,0.002702,0.022593
828.000000,0.004137,0.011491,0.002044,0.001579,0.021589
829.000000,0.004047,0.010835,0.002235,0.003922,0.003028
830.000000,0.003440,0.010247,0.003141,0.003040,-0.002649
831.000000,0.013310,0.009658,0.004268,0.003768,0.021990
832.000000,0.005904,0.007482,0.003391,0.001971,-0.014439
833.000000,0.009019,0.006578,0.004636,0.003388,0.037164
834.000000,0.012550,0.008299,0.006870,0.004603,0.020683
835.000000,0.006781,0.005111,0.006034,0.002912,-0.031493
836.000000,0.004158,0.008734,0.006852,0.002565,0.008875
837.000000,0.007433,0.006668,0.008164,0.003011,0.001935
838.000000,-0.005263,0.001878,0.006685,0.001989,-0.026316
839.000000,-0.012625,-0.000038,0.005398,0.001478,-0.016128
840.000000,-0.001545,0.002618,0.006433,0.002967,0.023911
841.000000,-0.009773,-0.002807,0.003426,0.001909,-0.032265
842.000000,-0.010261,-0.001414,0.003034,0.001789,-0.000509
843.000000,-0.002245,-0.003754,0.001412,0.001839,0.013765
844.000000,0.002455,-0.005085,0.001607,0.002885,0.007373
845.000000,-0.001879,-0.001712,0.001699,0.003452,0.002239
846.000000,-0.000076,-0.004924,0.001905,0.002926,-0.023250
847.000000,0.005147,-0.002557,0.002056,0.004590,0.025607
848.000000,0.004563,0.001159,0.001518,0.004843,0.010847
849.000000,0.000224,0.001340,0.000651,0.004045,-0.014323
850.000000,-0.001046,-0.001463,0.000578,0.003801,-0.004112
851.000000,0.005691,0.002807,0.000000,0.003219,0.010435
852.000000,0.001432,0.003290,0.000938,0.003119,0.004316
853.000000,0.002243,0.003403,-0.000175,0.002076,0.014900
854.000000,0.006533,0.003379,-0.000853,0.002197,0.007127
855.000000,0.005469,0.002211,0.000250,0.001870,-0.009433
856.000000,0.001600,0.003645,-0.000640,0.002485,-0.008910
857.000000,0.000221,0.000827,-0.000865,0.001646,-0.002578
858.000000,-0.004264,-0.001010,0.000074,0.000676,-0.007526
859.000000,-0.006334,0.000099,0.000720,0.000467,-0.003225
860.000000,-0.006395,-0.000463,-0.000963,0.000231,-0.009738
861.000000,-0.000737,0.000432,0.001619,0.000144,0.019382
862.000000,0.009739,0.004980,0.004135,0.002285,0.049803
863.000000,0.011104,0.003420,0.003412,0.001023,-0.000703
864.000000,0.009913,0.001789,0.002584,0.000028,-0.009180
865.000000,0.004589,-0.000903,0.000654,-0.000135,-0.036359
866.000000,0.000295,-0.000221,0.001712,-0.000500,-0.002087
867.000000,-0.005796,0.001972,0.001399,0.000080,0.019347
868.000000,-0.006961,0.002071,0.000530,0.000740,-0.006529
869.000000,-0.010685,-0.000386,-0.000143,0.000351,-0.027797
870.000000,-0.001650,0.001470,0.000503,-0.000152,0.008816
871.000000,0.004375,0.002335,0.001383,0.001858,0.028037
872.000000,0.004598,-0.000599,0.002191,0.002557,0.020465
873.000000,0.002795,-0.002083,0.000668,0.001580,-0.015548
874.000000,0.010495,-0.000095,0.000847,0.001691,0.010708
875.000000,0.000420,-0.000615,-0.000759,0.000231,-0.041562
876.000000,-0.011377,-0.003501,-0.001861,-0.000025,-0.030945
877.000000,-0.007585,-0.001493,0.000239,0.000435,0.039421
878.000000,-0.000383,0.001206,0.001638,0.000756,0.020462
879.000000,-0.002573,0.003961,0.001788,0.001225,-0.000240
880.000000,0.008974,0.004697,0.003083,0.001901,0.016172
881.000000,0.010340,-0.000518,0.000908,0.000749,-0.024115
882.000000,0.002456,-0.002565,-0.001582,0.000606,0.000000
883.000000,-0.004435,-0.002409,-0.002246,-0.000358,-0.013993
884.000000,-0.002121,-0.002347,-0.001221,-0.000217,0.011331
885.000000,-0.004485,0.002245,0.000815,0.000242,0.004352
886.000000,0.005670,0.008005,0.002252,0.001428,0.026662
887.000000,0.002593,0.002524,0.000516,0.001001,-0.015387
888.000000,0.007267,0.001416,0.001311,0.001564,0.009379
889.000000,0.003745,0.000812,0.002387,0.001462,-0.006282
890.000000,0.000843,-0.001821,0.001438,0.001448,-0.010158
891.000000,-0.007418,-0.000874,-0.000696,0.000314,-0.014641
892.000000,-0.004170,-0.000789,-0.001677,-0.001317,0.000853
893.000000,-0.007562,-0.000147,-0.001278,-0.001547,-0.007579
894.000000,-0.007561,-0.001908,-0.002127,-0.001450,-0.006278
895.000000,-0.011114,-0.005136,-0.001446,-0.001169,-0.027924
896.000000,-0.003914,-0.005666,0.001170,-0.000387,0.021358
897.000000,-0.005757,-0.004964,-0.001220,-0.001311,-0.008363
898.000000,-0.003941,-0.005751,-0.002168,-0.001043,0.001503
899.000000,0.001770,-0.002895,-0.001042,0.000626,0.022278
900.000000,-0.000127,-0.005620,-0.003721,-0.000915,-0.037411
901.000000,-0.001397,-0.002656,-0.001765,-0.001349,0.015008
902.000000,0.006390,0.000316,-0.000236,-0.001012,0.030571
903.000000,0.010579,0.003319,0.001586,0.000254,0.022449
904.000000,0.019706,0.010738,0.004415,0.002161,0.067916
905.000000,0.028295,0.014084,0.004474,0.003731,0.005530
906.000000,0.024674,0.011639,0.002986,0.004659,-0.003093
907.000000,0.016425,0.011407,0.003222,0.002989,-0.010679
908.000000,0.013849,0.012214,0.003231,0.002626,0.009572
909.000000,0.002294,0.011000,0.004052,0.002972,0.010139
910.000000,-0.000243,0.014026,0.004203,0.002195,-0.007153
911.000000,-0.000266,0.012204,0.004774,0.002892,-0.003208
912.000000,0.001781,0.009103,0.004710,0.002877,-0.000443
913.000000,0.003187,0.008518,0.005918,0.003897,0.016598
914.000000,0.001224,0.001759,0.006249,0.003530,0.000327
915.000000,0.001365,0.000561,0.007322,0.003170,-0.006451
916.000000,0.002094,0.000914,0.006276,0.002296,0.000439
917.000000,0.001127,0.001454,0.006431,0.002633,-0.005276
918.000000,-0.003253,-0.000033,0.006090,0.002143,-0.005304
919.000000,-0.003474,-0.001125,0.004938,0.002327,-0.000776
920.000000,-0.000066,0.000649,0.007338,0.003018,0.010589
921.000000,-0.002515,-0.000211,0.005997,0.003113,-0.011810
922.000000,-0.005000,-0.001936,0.003583,0.002494,-0.017698
923.000000,-0.003803,-0.003528,0.002495,0.002770,0.000678
924.000000,-0.002837,-0.003155,-0.000698,0.003114,0.004057
925.000000,0.007938,0.003936,0.002248,0.006194,0.064461
926.000000,0.009221,0.003353,0.002134,0.005302,-0.005393
927.000000,0.015101,0.005050,0.003252,0.005971,0.011700
928.000000,0.009052,0.002625,0.001296,0.004935,-0.029564
929.000000,0.008952,0.003058,0.000966,0.004311,0.003555
930.000000,-0.009568,-0.000815,-0.000083,0.004620,-0.028140
931.000000,-0.012851,-0.001815,-0.001013,0.003393,-0.021807
932.000000,-0.009617,0.002742,0.000403,0.003303,0.027872
933.000000,-0.003660,0.002696,-0.000416,0.002562,0.000220
934.000000,-0.006404,0.001274,-0.000941,-0.000041,-0.010165
935.000000,0.000000,-0.004784,-0.000424,-0.000096,0.003879
936.000000,0.011148,-0.000852,0.001251,0.001138,0.033931
937.000000,0.003617,-0.003000,0.001025,0.001168,-0.009778
938.000000,-0.002700,-0.003180,-0.000278,-0.000196,-0.031369
939.000000,-0.001762,-0.004083,-0.000513,-0.000717,-0.005475
940.000000,-0.004113,-0.002056,-0.001436,-0.000741,-0.007873
941.000000,0.000939,0.006043,0.002114,0.001339,0.059189
942.000000,0.005201,0.004409,0.003576,0.001738,0.011534
943.000000,0.014938,0.006119,0.004407,0.001762,0.017314
944.000000,0.014788,0.006513,0.003893,0.001544,-0.006223
945.000000,0.014334,0.005111,0.000163,0.001421,-0.010144
946.000000,0.007150,0.004045,0.001596,0.002182,0.023271
947.000000,0.004350,0.004776,0.000888,0.002276,-0.002468
948.000000,-0.000559,0.007189,0.002005,0.002211,-0.007232
949.000000,0.002441,0.008614,0.002266,0.002530,0.008775
950.000000,0.001904,0.008119,0.003031,0.001749,-0.012827
951.000000,-0.002231,0.002460,0.004252,0.002229,0.002599
952.000000,-0.003405,0.000472,0.002441,0.002541,-0.008342
953.000000,-0.004107,-0.002333,0.001893,0.002161,-0.010738
954.000000,-0.007349,-0.002454,0.002029,0.001778,-0.007437
955.000000,-0.006175,-0.002135,0.001488,-0.000603,-0.006955
956.000000,-0.002592,-0.002411,0.000817,0.000261,0.020512
957.000000,-0.001239,-0.002322,0.001227,-0.000182,-0.001579
958.000000,-0.001274,-0.002690,0.002249,0.000440,-0.010912
959.000000,-0.000342,-0.003845,0.002385,0.000229,-0.002773
960.000000,-0.000990,-0.003582,0.002268,0.000827,-0.010199
961.000000,-0.006240,-0.004416,-0.000978,0.001362,-0.005736
962.000000,-0.006794,-0.004017,-0.001772,0.000288,-0.004351
963.000000,-0.006672,-0.003973,-0.003153,-0.000062,-0.010299
964.000000,-0.006956,-0.003649,-0.003051,0.000137,-0.004194
965.000000,-0.003286,-0.002138,-0.002137,0.000279,0.008151
966.000000,-0.002622,-0.004431,-0.003421,-0.000933,-0.002416
967.000000,0.000740,-0.003027,-0.002675,-0.000191,0.012458
968.000000,0.002191,-0.002241,-0.002465,0.000753,-0.003045
969.000000,0.006549,-0.000203,-0.002024,0.001522,0.017600
970.000000,0.004769,0.000742,-0.001420,0.001759,-0.000750
971.000000,0.005403,0.001390,-0.001513,-0.000189,0.000750
972.000000,0.001191,0.000965,-0.001526,-0.000860,-0.008599
973.000000,-0.000851,0.000670,-0.001652,-0.001879,-0.013258
974.000000,-0.001612,0.002469,-0.000590,-0.001211,0.013798
975.000000,0.002575,0.003672,0.000767,-0.000200,0.020188
976.000000,0.003796,0.004599,0.000084,-0.000748,0.006850
977.000000,-0.000627,0.000282,-0.001373,-0.001689,-0.030713
978.000000,0.003771,0.001460,-0.000390,-0.001157,0.008734
979.000000,0.006350,0.002369,0.001083,-0.000560,0.026694
980.000000,0.001475,0.002025,0.001384,-0.000272,-0.004190
981.000000,0.003704,0.003750,0.002570,0.000241,0.017996
982.000000,0.007732,0.003553,0.002259,0.000167,-0.010571
983.000000,0.000686,0.002229,0.001449,-0.000358,-0.026499
984.000000,-0.006869,-0.000259,0.001105,-0.000480,-0.011081
985.000000,0.014669,0.008072,0.005872,0.003202,0.103498
986.000000,0.015373,0.009539,0.007069,0.003236,0.021519
987.000000,0.015550,0.011641,0.005962,0.002965,-0.009689
988.000000,0.022233,0.011459,0.006460,0.003560,0.006916
989.000000,0.023509,0.008320,0.005344,0.003495,-0.004702
990.000000,0.001961,0.008315,0.005170,0.003694,-0.004241
991.000000,0.000343,0.007858,0.005804,0.004333,0.013432
992.000000,0.005158,0.010354,0.006953,0.004957,0.014382
993.000000,0.002606,0.012419,0.007324,0.005106,-0.005841
994.000000,0.007624,0.015566,0.007654,0.005925,0.020390
995.000000,0.001309,0.001635,0.004853,0.004460,-0.035816
996.000000,-0.001934,-0.000796,0.004372,0.004447,-0.002787
997.000000,-0.004657,0.000250,0.005946,0.004058,0.000770
998.000000,-0.004491,-0.000943,0.005258,0.003992,-0.005013
999.000000,-0.009189,-0.000782,0.003769,0.003302,-0.003097
1000.000000,-0.003212,-0.000951,0.003682,0.003130,-0.005931
1001.000000,-0.001526,-0.001730,0.003064,0.003293,0.005640
1002.000000,-0.003825,-0.004241,0.003056,0.003222,-0.010723
1003.000000,-0.001825,-0.003158,0.004631,0.003830,0.004986
1004.000000,-0.002949,-0.006069,0.004749,0.003079,-0.008717
1005.000000,-0.002492,-0.002852,-0.000608,0.002285,-0.003647
1006.000000,-0.003976,-0.002751,-0.001773,0.001997,-0.001779
1007.000000,0.002938,-0.000443,-0.000096,0.003816,0.023848
1008.000000,0.002095,0.000135,-0.000404,0.003551,0.000772
1009.000000,0.004917,0.000984,0.000101,0.002841,0.005390
1010.000000,0.007614,0.002561,0.000805,0.003308,0.009838
1011.000000,0.003763,-0.000107,-0.000919,0.002007,-0.021035
1012.000000,-0.000271,0.001334,-0.001454,0.002482,0.003682
1013.000000,0.002494,0.002295,-0.000432,0.003852,0.014593
1014.000000,0.002272,0.003594,-0.001237,0.004364,0.004280
1015.000000,0.000342,0.003978,0.000563,0.000920,0.000190
1016.000000,0.004720,0.004241,0.000745,0.000231,0.000854
1017.000000,0.003832,0.001780,0.000669,0.000529,-0.000759
1018.000000,0.000514,0.001504,0.000819,0.000232,-0.001994
1019.000000,0.000190,0.001231,0.001107,0.000477,0.002658
1020.000000,-0.003697,-0.001677,0.000442,-0.000023,-0.019241
1021.000000,-0.003442,0.000639,0.000266,-0.000399,0.002124
1022.000000,-0.002867,0.000482,0.000908,-0.000808,0.002120
1023.000000,-0.001527,-0.000506,0.000894,-0.000457,0.004705
1024.000000,-0.004934,-0.002372,0.000611,-0.001616,-0.014376
1025.000000,-0.004417,-0.004057,-0.000040,-0.000977,-0.016659
1026.000000,-0.004093,-0.003767,0.000237,-0.000759,0.003748
1027.000000,-0.005662,-0.004264,-0.001242,-0.000976,-0.005726
1028.000000,-0.009174,-0.005350,-0.001923,-0.001237,-0.012855
1029.000000,-0.003846,-0.004390,-0.001580,-0.000725,0.012260
1030.000000,-0.002987,-0.003702,-0.002690,-0.000939,-0.012361
1031.000000,-0.008836,-0.006464,-0.002913,-0.001977,-0.025498
1032.000000,-0.005745,-0.005703,-0.002610,-0.001296,0.009727
1033.000000,0.000200,-0.004487,-0.002496,-0.000899,0.016873
1034.000000,0.000988,-0.001429,-0.001901,-0.000069,0.016199
1035.000000,0.001300,-0.000843,-0.002450,-0.000307,-0.010803
1036.000000,0.008145,-0.000345,-0.002056,0.000043,0.008731
1037.000000,0.005249,-0.000248,-0.002256,-0.000911,-0.004753
1038.000000,0.000720,0.000460,-0.002445,-0.001129,-0.005773
1039.000000,-0.004809,-0.001910,-0.003150,-0.001690,-0.011446
1040.000000,-0.001762,-0.000231,-0.001966,-0.001870,0.004433
1041.000000,-0.007447,0.000349,-0.003057,-0.001825,-0.019696
1042.000000,-0.006414,-0.000582,-0.003143,-0.001934,0.000410
1043.000000,-0.007880,-0.003580,-0.004033,-0.002858,-0.013102
1044.000000,-0.002275,-0.003542,-0.002485,-0.002448,0.016580
1045.000000,-0.005050,-0.003406,-0.002125,-0.002769,-0.009441
1046.000000,0.005102,-0.001173,-0.000759,-0.001762,0.031062
1047.000000,0.001836,-0.002289,-0.001268,-0.002267,-0.015918
1048.000000,0.004660,-0.001610,-0.000575,-0.002167,0.001015
1049.000000,0.004364,0.001045,-0.000433,-0.001752,0.015103
1050.000000,0.005170,0.000060,-0.000085,-0.001291,-0.005411
1051.000000,-0.010717,-0.002807,-0.001229,-0.002974,-0.048373
1052.000000,-0.005707,-0.001935,-0.001259,-0.002740,0.009132
1053.000000,-0.007821,-0.001580,-0.002580,-0.003216,-0.009554
1054.000000,-0.010504,-0.003070,-0.003306,-0.002680,0.001687
1055.000000,-0.010181,-0.002506,-0.002956,-0.002252,-0.003799
1056.000000,0.004649,-0.003034,-0.002103,-0.001517,0.025778
1057.000000,0.000271,-0.002718,-0.002503,-0.001751,-0.012754
1058.000000,0.003431,-0.002195,-0.001903,-0.001115,0.006242
1059.000000,0.002657,-0.003923,-0.001439,-0.001596,-0.002180
1060.000000,-0.000127,-0.005154,-0.002547,-0.001775,-0.017720
1061.000000,-0.005029,-0.000190,-0.001499,-0.000883,0.001269
1062.000000,-0.002140,-0.000934,-0.001435,-0.001151,0.001689
1063.000000,-0.003283,0.000074,-0.000753,-0.001696,0.000527
1064.000000,-0.005992,-0.001667,-0.002369,-0.002760,-0.015725
1065.000000,0.001602,0.000737,-0.000884,-0.001725,0.020248
1066.000000,0.004905,-0.000062,-0.001548,-0.001423,0.017786
1067.000000,0.004917,0.001389,-0.000664,-0.001206,0.001751
1068.000000,0.005593,0.001155,-0.000520,-0.000883,0.003903
1069.000000,0.007524,0.000766,-0.001579,-0.000704,-0.006067
1070.000000,0.006118,0.003860,-0.000647,-0.000411,0.013217
1071.000000,0.001192,0.003049,0.001429,0.000017,-0.006843
1072.000000,0.001803,0.003360,0.001213,0.000164,0.004805
1073.000000,-0.000390,0.002601,0.001338,0.000365,-0.007062
1074.000000,0.003294,0.005409,0.001871,0.000224,0.012352
1075.000000,-0.000755,0.002682,0.001710,0.000304,-0.007025
1076.000000,-0.000185,0.000504,0.000221,-0.000864,-0.003992
1077.000000,-0.004977,-0.001587,-0.000099,-0.000972,-0.019159
1078.000000,-0.003356,-0.001873,-0.000359,-0.000971,0.001045
1079.000000,-0.007736,-0.002221,-0.000728,-0.001793,-0.009550
1080.000000,-0.009606,-0.005180,-0.000660,-0.002158,-0.016373
1081.000000,-0.008786,-0.004485,-0.000718,-0.000542,0.000107
1082.000000,-0.004355,-0.004666,-0.000653,-0.000747,0.002997
1083.000000,-0.004222,-0.003789,-0.000594,-0.000371,0.001708
1084.000000,0.000926,-0.003405,0.001002,0.000112,0.016190
1085.000000,0.002175,-0.003716,-0.000517,-0.000099,-0.010128
1086.000000,-0.000644,-0.004715,-0.002106,-0.001424,-0.013988
1087.000000,-0.002322,-0.003338,-0.002463,-0.001179,-0.005391
1088.000000,-0.003682,-0.003952,-0.002913,-0.001557,-0.005094
1089.000000,-0.007268,-0.003171,-0.002696,-0.001542,-0.001740
1090.000000,-0.005482,-0.001654,-0.003417,-0.000991,-0.001198
1091.000000,-0.009694,-0.005169,-0.004827,-0.002202,-0.035045
1092.000000,-0.003534,-0.002928,-0.003797,-0.001411,0.025408
1093.000000,-0.000740,-0.002211,-0.003000,-0.001133,0.008873
1094.000000,-0.000501,-0.003885,-0.003645,-0.000627,-0.000545
1095.000000,0.005969,0.000244,-0.001736,-0.000263,0.031155
1096.000000,0.012427,0.001367,-0.001674,-0.000948,-0.002754
1097.000000,0.008235,0.002351,-0.000494,-0.000858,0.004445
1098.000000,0.006523,0.002892,-0.000530,-0.000978,0.000317
1099.000000,0.004723,0.002111,-0.000530,-0.001094,-0.009546
1100.000000,-0.003392,0.001289,-0.000183,-0.001848,-0.009423
1101.000000,-0.005571,0.003428,-0.000870,-0.002075,-0.013648
1102.000000,-0.001889,0.003173,0.000123,-0.001474,0.022858
1103.000000,-0.003450,0.001537,-0.000337,-0.001488,-0.007490
1104.000000,-0.002790,0.000967,-0.001459,-0.002108,-0.006249
1105.000000,-0.000603,-0.001998,-0.000877,-0.001823,0.001512
1106.000000,-0.001467,-0.003519,-0.001076,-0.002289,-0.017966
1107.000000,-0.005599,-0.003744,-0.000697,-0.001577,0.002195
1108.000000,-0.007641,-0.005545,-0.001327,-0.002202,-0.017696
1109.000000,-0.004857,-0.003824,-0.000856,-0.001628,0.007670
1110.000000,-0.004960,-0.002782,-0.000747,-0.001049,0.000996
1111.000000,-0.002966,-0.002217,0.000606,-0.001319,-0.007996
1112.000000,-0.004479,-0.005039,-0.000933,-0.001598,-0.005367
1113.000000,0.002682,-0.002479,-0.000471,-0.001051,0.018109
1114.000000,-0.004842,-0.004849,-0.001941,-0.002589,-0.029950
1115.000000,-0.005132,-0.005046,-0.003522,-0.002267,-0.000454
1116.000000,0.000890,-0.001038,-0.002279,-0.001063,0.022112
1117.000000,0.001519,-0.001480,-0.002612,-0.000958,-0.002223
1118.000000,-0.000595,0.001043,-0.002251,-0.000537,0.007537
1119.000000,0.001762,-0.001540,-0.002682,-0.001084,-0.018163
1120.000000,-0.002444,-0.003788,-0.003285,-0.001760,-0.021482
1121.000000,-0.003494,-0.001302,-0.001759,-0.000030,0.016861
1122.000000,-0.004069,-0.001275,-0.003157,-0.001047,-0.005097
1123.000000,-0.006076,-0.003336,-0.002908,-0.001426,-0.002501
1124.000000,-0.004113,-0.001175,-0.003012,-0.001686,-0.008344
1125.000000,0.001488,-0.000478,-0.002762,-0.002507,0.006521
1126.000000,-0.001656,-0.002575,-0.001807,-0.002377,0.001140
1127.000000,-0.001550,-0.002809,-0.002145,-0.002678,-0.004567
1128.000000,0.000341,-0.002868,-0.000912,-0.002456,0.006956
1129.000000,0.004315,0.000101,-0.000719,-0.001754,0.011524
1130.000000,0.005200,0.003344,-0.000222,-0.001075,0.010949
1131.000000,0.006125,0.002234,0.000466,-0.000428,0.005761
1132.000000,0.011084,0.004767,0.001746,-0.000516,0.020231
1133.000000,0.005160,0.002751,-0.000293,-0.001021,-0.022665
1134.000000,-0.000878,0.001718,0.000272,-0.001435,-0.018667
1135.000000,-0.003497,0.000852,0.000187,-0.001557,-0.002146
1136.000000,-0.001998,0.002063,-0.000256,-0.000517,0.013254
1137.000000,-0.003803,0.003640,0.000415,-0.000216,0.011207
1138.000000,0.000597,0.002879,0.000006,0.000351,-0.000662
1139.000000,0.007050,0.003086,0.001594,0.000549,0.013598
1140.000000,0.007610,0.002056,0.002700,0.000538,0.000653
1141.000000,0.005025,0.001513,0.001874,0.000815,0.000326
1142.000000,0.002347,-0.000728,0.002020,0.000921,-0.002179
1143.000000,0.008093,0.004345,0.003548,0.001253,0.028065
1144.000000,0.003990,0.005520,0.003619,0.002021,-0.006916
1145.000000,0.002251,0.004931,0.002891,0.001768,-0.008040
1146.000000,0.003045,0.004035,0.003049,0.001174,0.004296
1147.000000,0.006797,0.004572,0.004106,0.001801,0.016580
1148.000000,0.000931,0.004512,0.003695,0.001508,-0.001266
1149.000000,0.004894,0.004442,0.003764,0.002543,0.012898
1150.000000,0.005331,0.003791,0.002924,0.003064,-0.005852
1151.000000,0.003884,0.003465,0.002489,0.002404,-0.002939
1152.000000,-0.000866,0.002965,0.001119,0.002335,-0.007173
1153.000000,-0.005196,-0.002133,0.001106,0.001654,-0.022916
1154.000000,-0.015326,-0.005216,0.000152,0.000674,-0.037749
1155.000000,-0.010698,-0.002683,0.001124,0.001033,0.017285
1156.000000,-0.011843,-0.003979,0.000028,0.000706,-0.008661
1157.000000,-0.007134,-0.004000,0.000286,0.001404,0.016370
1158.000000,-0.004314,-0.004755,-0.000122,0.000878,-0.008815
1159.000000,0.000494,-0.007416,-0.001487,0.000037,-0.013707
1160.000000,-0.004291,-0.007495,-0.001852,-0.000549,-0.006642
1161.000000,-0.003783,-0.007813,-0.002174,-0.000945,-0.006118
1162.000000,-0.009274,-0.008204,-0.002619,-0.001989,-0.011085
1163.000000,-0.012255,-0.008284,-0.005209,-0.002024,-0.023722
1164.000000,-0.013315,-0.006410,-0.005813,-0.002035,-0.019007
1165.000000,-0.010291,-0.007291,-0.004987,-0.001681,0.008479
1166.000000,-0.010021,-0.006902,-0.005440,-0.002282,-0.004768
1167.000000,-0.006494,-0.007884,-0.005942,-0.002437,0.006550
1168.000000,0.000306,-0.005975,-0.005365,-0.002073,0.010275
1169.000000,0.002952,-0.005181,-0.006298,-0.002718,-0.005774
1170.000000,0.000996,-0.004647,-0.006071,-0.002783,-0.001301
1171.000000,-0.000694,-0.005357,-0.006585,-0.003235,-0.013222
1172.000000,-0.002605,-0.004549,-0.006377,-0.003263,-0.003002
1173.000000,-0.003413,-0.001554,-0.004919,-0.003990,0.006234
1174.000000,0.000873,0.001913,-0.002249,-0.003238,0.015653
1175.000000,0.002680,0.001838,-0.002726,-0.002712,0.007736
1176.000000,0.005837,0.002572,-0.002165,-0.002770,0.002565
1177.000000,0.010997,0.004196,-0.001844,-0.002563,0.022796
1178.000000,0.011450,0.004019,-0.000978,-0.002237,0.008501
1179.000000,0.004169,0.002521,-0.001330,-0.003359,-0.020756
1180.000000,0.005254,0.003967,-0.000340,-0.002725,0.013165
1181.000000,0.005966,0.005902,0.000272,-0.002423,0.006122
1182.000000,0.007265,0.009131,0.002291,-0.001207,0.029294
1183.000000,0.007053,0.009251,0.003849,-0.000196,0.007437
1184.000000,0.014317,0.009243,0.005578,0.001582,0.015568
1185.000000,0.011319,0.008287,0.005062,0.000945,-0.001825
1186.000000,0.010267,0.008116,0.005344,0.001262,0.000859
1187.000000,0.006650,0.006958,0.005577,0.001090,0.011211
1188.000000,0.004546,0.005799,0.004909,0.001281,-0.003084
1189.000000,0.002833,0.008575,0.005548,0.001972,0.007005
1190.000000,0.006845,0.009082,0.006525,0.002801,0.018236
1191.000000,0.007875,0.009071,0.007486,0.003205,0.006005
1192.000000,0.006559,0.006605,0.007868,0.003729,0.004635
1193.000000,0.006146,0.005346,0.007299,0.004348,-0.005151
1194.000000,0.004580,0.003706,0.006475,0.004954,-0.000827
1195.000000,0.001840,0.004343,0.006315,0.004823,0.004538
1196.000000,-0.000765,0.003555,0.005835,0.004747,-0.007022
1197.000000,-0.002045,0.002257,0.004607,0.004470,-0.001763
1198.000000,-0.000559,0.002794,0.004296,0.004204,0.002281
1199.000000,-0.001140,0.001720,0.005147,0.004272,-0.003736
1200.000000,-0.001404,0.000218,0.004650,0.004422,0.003218
1201.000000,0.000579,-0.000093,0.004489,0.004960,0.002897
1202.000000,-0.000395,-0.001220,0.002692,0.004839,-0.006635
1203.000000,0.000207,-0.000176,0.002585,0.004807,0.005291
1204.000000,0.000892,-0.000124,0.001791,0.004275,-0.000310
1205.000000,0.001466,0.000031,0.002187,0.004220,0.006088
1206.000000,0.001380,0.000980,0.002267,0.004217,0.002466
1207.000000,0.001079,0.000342,0.001300,0.003186,-0.008140
1208.000000,-0.001850,-0.000822,0.000986,0.002590,-0.009355
1209.000000,0.000455,0.000673,0.001197,0.003656,0.011215
1210.000000,-0.000494,0.000486,0.000352,0.003262,0.001342
1211.000000,-0.002001,-0.000310,-0.000202,0.002889,-0.005066
1212.000000,-0.001058,0.000010,-0.000605,0.001798,-0.003426
1213.000000,0.002408,0.000279,0.000052,0.001816,0.007976
1214.000000,0.003338,0.001897,0.000886,0.001826,0.015866
1215.000000,0.005211,0.002359,0.001195,0.002244,0.010707
1216.000000,0.006907,0.002453,0.001716,0.002329,0.003410
1217.000000,0.012380,0.005661,0.003002,0.002753,0.023943
1218.000000,0.012072,0.007240,0.003209,0.003071,0.006432
1219.000000,0.011887,0.007613,0.004143,0.003335,0.014944
1220.000000,0.014399,0.009805,0.005146,0.003503,0.023268
1221.000000,0.012084,0.009495,0.004592,0.003031,-0.008167
1222.000000,0.003949,0.008165,0.004088,0.002318,-0.016729
1223.000000,0.003524,0.007798,0.004038,0.002634,0.004304
1224.000000,0.000153,0.006020,0.003958,0.002598,-0.001911
1225.000000,-0.004730,0.004835,0.003597,0.002408,-0.001148
1226.000000,-0.006944,0.002570,0.002512,0.002001,-0.019234
1227.000000,-0.005776,-0.000913,0.002374,0.001697,-0.010892
1228.000000,-0.006499,-0.001487,0.002876,0.001644,0.000690
1229.000000,-0.005703,-0.002775,0.002419,0.001837,0.002068
1230.000000,-0.005867,-0.005299,0.002253,0.001664,-0.001970
1231.000000,-0.001587,-0.004265,0.002615,0.001640,0.002166
1232.000000,0.000453,-0.002661,0.002752,0.001838,-0.000689
1233.000000,0.000453,-0.003023,0.002387,0.001685,0.000689
1234.000000,-0.003614,-0.004658,0.000681,0.001086,-0.018265
1235.000000,-0.003180,-0.004524,0.000155,0.000890,0.000200
1236.000000,-0.002295,-0.001941,0.000314,0.001027,0.006589
1237.000000,0.001432,0.000943,0.000015,0.001897,0.017947
1238.000000,0.002444,0.001449,-0.000019,0.002400,0.005750
1239.000000,0.002449,-0.000582,-0.001679,0.001419,-0.018239
1240.000000,0.002112,-0.000534,-0.002916,0.001324,-0.001486
1241.000000,-0.003291,-0.002793,-0.003529,0.000812,-0.020425
1242.000000,-0.005148,-0.001858,-0.002260,0.001215,0.008662
1243.000000,-0.004958,-0.001257,-0.002140,0.001173,0.006696
